0,1,2,3,4,5,6,7,8,9,10,11,12,13,14,15,16,17,18,19,20,21,22,23,24,25,26,27,28,29,30,31,32,33,34,35,36,37,38,39,40,41,42,43,44,45,46,47,48,49,50,51,52,53,54,55,56,57,58,59,60,61,62,63,64,65,66,67,68,69,70,71,72,73,74,75,76,77,78,79,80,81,82,83,84,85,86,87,88,89,90,91,92,93,94,95,96,97,98,99,100,101,102,103,104,105,106,107
0.7695826641728624,0.43881105430985945,-0.12708368550189558,0.4461357624079514,31.5625,110.875,-94.0625,0.82275390625,1.0673828125,0.7431640625,0.7620008077398863,0.4403905661521371,-0.1519851018321305,0.44979044795219664,4.5625,89.125,-47.4375,0.91748046875,0.96337890625,0.8330078125,0.0,1.0,0.0,1.0,1.0,0.0,0.0,0.0,0.0,0.0,2.0,1.0,0.0,1.0,0.0,0.0,-0.14684225572696016,-0.6323493813744947,-0.2563331147353419,-0.7161458972153577,-28.375,33.5,-37.25,0.99462890625,0.791015625,0.3388671875,-0.13921245134100077,-0.6413781898915288,-0.2548057800739493,-0.710160492680353,-21.0625,18.75,-30.5625,0.978515625,0.7890625,0.13037109375,2.0,2.0,2.0,4.0,4.0,1.0,1.0,1.0,0.0,0.0,1.0,3.0,4.0,2.0,1.0,1.0,-2.0,-2.0,-2.0,-2.0,-2.0,-2.0,-2.0,-2.0,-2.0,-2.0,-2.0,-2.0,-2.0,-2.0,-2.0,-2.0,-2.0,-2.0,-2.0,-2.0,-2.0,-2.0,-2.0,-2.0,-2.0,-2.0,-2.0,-2.0,-2.0,-2.0,-2.0,-2.0,-2.0,-2.0,-2.0,-2.0
0.7790174308125928,0.43550022477848854,-0.09625562080948513,0.44068838442896807,31.3125,138.0,-119.0625,0.61474609375,1.125,0.64013671875,0.7695826641728624,0.43881105430985945,-0.12708368550189558,0.4461357624079514,31.5625,110.875,-94.0625,0.82275390625,1.0673828125,0.7431640625,0.0,0.0,1.0,1.0,0.0,0.0,0.0,0.0,0.0,1.0,0.0,1.0,1.0,0.0,0.0,0.0,-0.1562383263067837,-0.6192774597792712,-0.2557792287311447,-0.7257148195757676,-49.125,55.125,-45.5625,1.02490234375,0.74609375,0.45068359375,-0.14684225572696016,-0.6323493813744947,-0.2563331147353419,-0.7161458972153577,-28.375,33.5,-37.25,0.99462890625,0.791015625,0.3388671875,2.0,1.0,3.0,4.0,3.0,1.0,1.0,1.0,2.0,2.0,2.0,4.0,4.0,1.0,1.0,1.0,-2.0,-2.0,-2.0,-2.0,-2.0,-2.0,-2.0,-2.0,-2.0,-2.0,-2.0,-2.0,-2.0,-2.0,-2.0,-2.0,-2.0,-2.0,-2.0,-2.0,-2.0,-2.0,-2.0,-2.0,-2.0,-2.0,-2.0,-2.0,-2.0,-2.0,-2.0,-2.0,-2.0,-2.0,-2.0,-2.0
0.7882030048383787,0.43234274632310354,-0.06195508788902303,0.43356353623224686,39.6875,147.25,-132.5625,0.33935546875,1.2177734375,0.63623046875,0.7790174308125928,0.43550022477848854,-0.09625562080948513,0.44068838442896807,31.3125,138.0,-119.0625,0.61474609375,1.125,0.64013671875,1.0,0.0,0.0,1.0,0.0,0.0,0.0,0.0,0.0,0.0,1.0,1.0,0.0,0.0,0.0,0.0,-0.1683217915732572,-0.6009661644749325,-0.2552900848988161,-0.7384676135012371,-68.0,85.1875,-59.125,1.01123046875,0.814453125,0.5029296875,-0.1562383263067837,-0.6192774597792712,-0.2557792287311447,-0.7257148195757676,-49.125,55.125,-45.5625,1.02490234375,0.74609375,0.45068359375,2.0,1.0,4.0,6.0,4.0,1.0,1.0,1.0,2.0,1.0,3.0,4.0,3.0,1.0,1.0,1.0,-2.0,-2.0,-2.0,-2.0,-2.0,-2.0,-2.0,-2.0,-2.0,-2.0,-2.0,-2.0,-2.0,-2.0,-2.0,-2.0,-2.0,-2.0,-2.0,-2.0,-2.0,-2.0,-2.0,-2.0,-2.0,-2.0,-2.0,-2.0,-2.0,-2.0,-2.0,-2.0,-2.0,-2.0,-2.0,-2.0
0.7985605420463385,0.4283648921563253,-0.02752815137681714,0.4219558990419887,32.875,139.125,-157.6875,0.3173828125,1.13427734375,0.658203125,0.7882030048383787,0.43234274632310354,-0.06195508788902303,0.43356353623224686,39.6875,147.25,-132.5625,0.33935546875,1.2177734375,0.63623046875,1.0,0.0,0.0,1.0,0.0,0.0,0.0,0.0,1.0,0.0,0.0,1.0,0.0,0.0,0.0,0.0,-0.1796742884055086,-0.5809509345557188,-0.2593193109493906,-0.750311039965123,-56.5625,109.4375,-76.4375,0.9814453125,1.00244140625,0.5,-0.1683217915732572,-0.6009661644749325,-0.2552900848988161,-0.7384676135012371,-68.0,85.1875,-59.125,1.01123046875,0.814453125,0.5029296875,1.0,1.0,4.0,6.0,4.0,1.0,1.0,1.0,2.0,1.0,4.0,6.0,4.0,1.0,1.0,1.0,-2.0,-2.0,-2.0,-2.0,-2.0,-2.0,-2.0,-2.0,-2.0,-2.0,-2.0,-2.0,-2.0,-2.0,-2.0,-2.0,-2.0,-2.0,-2.0,-2.0,-2.0,-2.0,-2.0,-2.0,-2.0,-2.0,-2.0,-2.0,-2.0,-2.0,-2.0,-2.0,-2.0,-2.0,-2.0,-2.0
0.8077036936565284,0.42457393584786607,0.007934820537697325,0.40900948017776745,42.75,141.4375,-167.3125,0.39208984375,0.86474609375,0.69287109375,0.7985605420463385,0.4283648921563253,-0.02752815137681714,0.4219558990419887,32.875,139.125,-157.6875,0.3173828125,1.13427734375,0.658203125,1.0,0.0,0.0,1.0,1.0,0.0,0.0,0.0,1.0,0.0,0.0,1.0,0.0,0.0,0.0,0.0,-0.19414558015251315,-0.5577184254742739,-0.2659202429187362,-0.761934430249599,-60.1875,121.8125,-104.875,0.935546875,0.93603515625,0.453125,-0.1796742884055086,-0.5809509345557188,-0.2593193109493906,-0.750311039965123,-56.5625,109.4375,-76.4375,0.9814453125,1.00244140625,0.5,1.0,1.0,5.0,7.0,4.0,1.0,2.0,1.0,1.0,1.0,4.0,6.0,4.0,1.0,1.0,1.0,-2.0,-2.0,-2.0,-2.0,-2.0,-2.0,-2.0,-2.0,-2.0,-2.0,-2.0,-2.0,-2.0,-2.0,-2.0,-2.0,-2.0,-2.0,-2.0,-2.0,-2.0,-2.0,-2.0,-2.0,-2.0,-2.0,-2.0,-2.0,-2.0,-2.0,-2.0,-2.0,-2.0,-2.0,-2.0,-2.0
0.8101492998138684,0.428177302659104,0.05029481074712782,0.3972313450756163,110.5,159.5,-164.0625,0.35009765625,0.8408203125,0.71533203125,0.8077036936565284,0.42457393584786607,0.007934820537697325,0.40900948017776745,42.75,141.4375,-167.3125,0.39208984375,0.86474609375,0.69287109375,1.0,1.0,1.0,1.0,0.0,0.0,0.0,0.0,1.0,0.0,0.0,1.0,1.0,0.0,0.0,0.0,-0.21086896417105597,-0.5315973018610413,-0.27171885050348515,-0.7740203194261452,-72.625,131.0625,-119.9375,0.97216796875,0.7109375,0.5859375,-0.19414558015251315,-0.5577184254742739,-0.2659202429187362,-0.761934430249599,-60.1875,121.8125,-104.875,0.935546875,0.93603515625,0.453125,2.0,2.0,7.0,10.0,6.0,1.0,2.0,1.0,1.0,1.0,5.0,7.0,4.0,1.0,2.0,1.0,-2.0,-2.0,-2.0,-2.0,-2.0,-2.0,-2.0,-2.0,-2.0,-2.0,-2.0,-2.0,-2.0,-2.0,-2.0,-2.0,-2.0,-2.0,-2.0,-2.0,-2.0,-2.0,-2.0,-2.0,-2.0,-2.0,-2.0,-2.0,-2.0,-2.0,-2.0,-2.0,-2.0,-2.0,-2.0,-2.0
0.8053547174839711,0.4388127227521805,0.1010813560825721,0.3855252687303897,181.375,179.6875,-159.75,-0.23046875,0.83349609375,0.689453125,0.8101492998138684,0.428177302659104,0.05029481074712782,0.3972313450756163,110.5,159.5,-164.0625,0.35009765625,0.8408203125,0.71533203125,1.0,1.0,1.0,2.0,1.0,0.0,1.0,0.0,1.0,1.0,1.0,1.0,0.0,0.0,0.0,0.0,-0.2275182670099814,-0.5008697471434864,-0.2721919181503533,-0.7894786217921458,-104.9375,155.5,-110.25,0.9580078125,0.46533203125,0.72119140625,-0.21086896417105597,-0.5315973018610413,-0.27171885050348515,-0.7740203194261452,-72.625,131.0625,-119.9375,0.97216796875,0.7109375,0.5859375,2.0,2.0,9.0,12.0,9.0,2.0,2.0,1.0,2.0,2.0,7.0,10.0,6.0,1.0,2.0,1.0,-2.0,-2.0,-2.0,-2.0,-2.0,-2.0,-2.0,-2.0,-2.0,-2.0,-2.0,-2.0,-2.0,-2.0,-2.0,-2.0,-2.0,-2.0,-2.0,-2.0,-2.0,-2.0,-2.0,-2.0,-2.0,-2.0,-2.0,-2.0,-2.0,-2.0,-2.0,-2.0,-2.0,-2.0,-2.0,-2.0
0.7999148644554286,0.44918530999828304,0.15381804337487068,0.36702694238614975,189.75,169.9375,-189.875,-0.654296875,0.8232421875,0.59228515625,0.8053547174839711,0.4388127227521805,0.1010813560825721,0.3855252687303897,181.375,179.6875,-159.75,-0.23046875,0.83349609375,0.689453125,1.0,1.0,1.0,2.0,1.0,0.0,1.0,1.0,1.0,1.0,1.0,2.0,1.0,0.0,1.0,0.0,-0.24241849575952237,-0.4637199725027319,-0.268051871444064,-0.8089160983878926,-133.875,192.5625,-93.625,0.81591796875,0.380859375,0.8095703125,-0.2275182670099814,-0.5008697471434864,-0.2721919181503533,-0.7894786217921458,-104.9375,155.5,-110.25,0.9580078125,0.46533203125,0.72119140625,2.0,2.0,11.0,15.0,11.0,2.0,2.0,1.0,2.0,2.0,9.0,12.0,9.0,2.0,2.0,1.0,-2.0,-2.0,-2.0,-2.0,-2.0,-2.0,-2.0,-2.0,-2.0,-2.0,-2.0,-2.0,-2.0,-2.0,-2.0,-2.0,-2.0,-2.0,-2.0,-2.0,-2.0,-2.0,-2.0,-2.0,-2.0,-2.0,-2.0,-2.0,-2.0,-2.0,-2.0,-2.0,-2.0,-2.0,-2.0,-2.0
0.7970259918739335,0.4546673773524989,0.20490245479558852,0.3406495681305271,163.6875,151.4375,-232.0,-0.693359375,0.8857421875,0.52490234375,0.7999148644554286,0.44918530999828304,0.15381804337487068,0.36702694238614975,189.75,169.9375,-189.875,-0.654296875,0.8232421875,0.59228515625,1.0,1.0,1.0,2.0,1.0,1.0,2.0,1.0,1.0,1.0,1.0,2.0,1.0,0.0,1.0,1.0,-0.25499704736906886,-0.4202751718964596,-0.2610393421726921,-0.8307850188577706,-154.8125,228.5,-79.9375,0.68798828125,0.40771484375,0.82177734375,-0.24241849575952237,-0.4637199725027319,-0.268051871444064,-0.8089160983878926,-133.875,192.5625,-93.625,0.81591796875,0.380859375,0.8095703125,2.0,2.0,14.0,20.0,15.0,2.0,2.0,1.0,2.0,2.0,11.0,15.0,11.0,2.0,2.0,1.0,-2.0,-2.0,-2.0,-2.0,-2.0,-2.0,-2.0,-2.0,-2.0,-2.0,-2.0,-2.0,-2.0,-2.0,-2.0,-2.0,-2.0,-2.0,-2.0,-2.0,-2.0,-2.0,-2.0,-2.0,-2.0,-2.0,-2.0,-2.0,-2.0,-2.0,-2.0,-2.0,-2.0,-2.0,-2.0,-2.0
0.7925144790352739,0.4581495440263991,0.25330676894611726,0.31281860020454244,156.625,142.875,-232.625,-0.642578125,0.7626953125,0.48876953125,0.7970259918739335,0.4546673773524989,0.20490245479558852,0.3406495681305271,163.6875,151.4375,-232.0,-0.693359375,0.8857421875,0.52490234375,1.0,2.0,2.0,3.0,1.0,1.0,3.0,2.0,1.0,1.0,1.0,2.0,1.0,1.0,2.0,1.0,-0.26732276879427164,-0.37400774592951974,-0.24815853377112063,-0.8526863933389883,-186.875,234.25,-67.75,0.5439453125,0.37744140625,0.8193359375,-0.25499704736906886,-0.4202751718964596,-0.2610393421726921,-0.8307850188577706,-154.8125,228.5,-79.9375,0.68798828125,0.40771484375,0.82177734375,2.0,2.0,16.0,22.0,18.0,2.0,2.0,1.0,2.0,2.0,14.0,20.0,15.0,2.0,2.0,1.0,-2.0,-2.0,-2.0,-2.0,-2.0,-2.0,-2.0,-2.0,-2.0,-2.0,-2.0,-2.0,-2.0,-2.0,-2.0,-2.0,-2.0,-2.0,-2.0,-2.0,-2.0,-2.0,-2.0,-2.0,-2.0,-2.0,-2.0,-2.0,-2.0,-2.0,-2.0,-2.0,-2.0,-2.0,-2.0,-2.0
0.7852041692085718,0.46047732062418106,0.29793077968804715,0.2874931309835489,149.625,139.75,-208.3125,-0.6240234375,0.57666015625,0.4375,0.7925144790352739,0.4581495440263991,0.25330676894611726,0.31281860020454244,156.625,142.875,-232.625,-0.642578125,0.7626953125,0.48876953125,1.0,2.0,2.0,3.0,1.0,2.0,5.0,2.0,1.0,2.0,2.0,3.0,1.0,1.0,3.0,2.0,-0.2773270836295725,-0.3279832190636713,-0.23130934131955977,-0.8729333796553201,-199.5625,227.625,-49.125,0.46044921875,0.39404296875,0.82275390625,-0.26732276879427164,-0.37400774592951974,-0.24815853377112063,-0.8526863933389883,-186.875,234.25,-67.75,0.5439453125,0.37744140625,0.8193359375,2.0,3.0,16.0,24.0,20.0,2.0,2.0,1.0,2.0,2.0,16.0,22.0,18.0,2.0,2.0,1.0,-2.0,-2.0,-2.0,-2.0,-2.0,-2.0,-2.0,-2.0,-2.0,-2.0,-2.0,-2.0,-2.0,-2.0,-2.0,-2.0,-2.0,-2.0,-2.0,-2.0,-2.0,-2.0,-2.0,-2.0,-2.0,-2.0,-2.0,-2.0,-2.0,-2.0,-2.0,-2.0,-2.0,-2.0,-2.0,-2.0
0.7755909884591238,0.46168019490869694,0.33850850885293937,0.2659360932333676,138.8125,138.0625,-179.3125,-0.5869140625,0.35302734375,0.41552734375,0.7852041692085718,0.46047732062418106,0.29793077968804715,0.2874931309835489,149.625,139.75,-208.3125,-0.6240234375,0.57666015625,0.4375,2.0,2.0,3.0,4.0,1.0,2.0,5.0,3.0,1.0,2.0,2.0,3.0,1.0,2.0,5.0,2.0,-0.28062569671328813,-0.2827007888594934,-0.21654196866871384,-0.8913131089171074,-172.25,235.4375,-24.125,0.578125,0.20751953125,0.77685546875,-0.2773270836295725,-0.3279832190636713,-0.23130934131955977,-0.8729333796553201,-199.5625,227.625,-49.125,0.46044921875,0.39404296875,0.82275390625,2.0,3.0,18.0,27.0,22.0,2.0,2.0,1.0,2.0,3.0,16.0,24.0,20.0,2.0,2.0,1.0,-2.0,-2.0,-2.0,-2.0,-2.0,-2.0,-2.0,-2.0,-2.0,-2.0,-2.0,-2.0,-2.0,-2.0,-2.0,-2.0,-2.0,-2.0,-2.0,-2.0,-2.0,-2.0,-2.0,-2.0,-2.0,-2.0,-2.0,-2.0,-2.0,-2.0,-2.0,-2.0,-2.0,-2.0,-2.0,-2.0
0.7637164627460188,0.46499296780683913,0.3719089200376832,0.24940420930148918,133.625,121.6875,-129.4375,-0.60595703125,0.22314453125,0.36083984375,0.7755909884591238,0.46168019490869694,0.33850850885293937,0.2659360932333676,138.8125,138.0625,-179.3125,-0.5869140625,0.35302734375,0.41552734375,2.0,2.0,3.0,4.0,1.0,2.0,5.0,3.0,2.0,2.0,3.0,4.0,1.0,2.0,5.0,3.0,-0.27866850587142156,-0.24082915553408443,-0.20561414723627228,-0.9066796590507751,-135.75,228.375,-3.9375,0.6201171875,0.2060546875,0.74169921875,-0.28062569671328813,-0.2827007888594934,-0.21654196866871384,-0.8913131089171074,-172.25,235.4375,-24.125,0.578125,0.20751953125,0.77685546875,3.0,3.0,19.0,29.0,24.0,2.0,3.0,1.0,2.0,3.0,18.0,27.0,22.0,2.0,2.0,1.0,-2.0,-2.0,-2.0,-2.0,-2.0,-2.0,-2.0,-2.0,-2.0,-2.0,-2.0,-2.0,-2.0,-2.0,-2.0,-2.0,-2.0,-2.0,-2.0,-2.0,-2.0,-2.0,-2.0,-2.0,-2.0,-2.0,-2.0,-2.0,-2.0,-2.0,-2.0,-2.0,-2.0,-2.0,-2.0,-2.0
0.7520777518092783,0.47135333166717364,0.39352692686587265,0.23946116551804225,114.75,82.75,-62.6875,-0.6396484375,0.2548828125,0.31005859375,0.7637164627460188,0.46499296780683913,0.3719089200376832,0.24940420930148918,133.625,121.6875,-129.4375,-0.60595703125,0.22314453125,0.36083984375,3.0,3.0,4.0,8.0,2.0,3.0,6.0,4.0,2.0,2.0,3.0,4.0,1.0,2.0,5.0,3.0,-0.24687594529078602,-0.14818659954660776,-0.21587150024561436,-0.933001872845549,26.8125,172.75,48.625,0.37890625,0.11962890625,0.689453125,-0.27866850587142156,-0.24082915553408443,-0.20561414723627228,-0.9066796590507751,-135.75,228.375,-3.9375,0.6201171875,0.2060546875,0.74169921875,3.0,3.0,20.0,30.0,26.0,3.0,3.0,2.0,3.0,3.0,19.0,29.0,24.0,2.0,3.0,1.0,-2.0,-2.0,-2.0,-2.0,-2.0,-2.0,-2.0,-2.0,-2.0,-2.0,-2.0,-2.0,-2.0,-2.0,-2.0,-2.0,-2.0,-2.0,-2.0,-2.0,-2.0,-2.0,-2.0,-2.0,-2.0,-2.0,-2.0,-2.0,-2.0,-2.0,-2.0,-2.0,-2.0,-2.0,-2.0,-2.0
0.7368547274153061,0.5066181442633401,0.392842695961308,0.21461077050962693,84.5,-88.25,33.75,-0.35498046875,0.580078125,0.0859375,0.7520777518092783,0.47135333166717364,0.39352692686587265,0.23946116551804225,114.75,82.75,-62.6875,-0.6396484375,0.2548828125,0.31005859375,3.0,3.0,5.0,9.0,3.0,3.0,7.0,5.0,3.0,3.0,4.0,8.0,2.0,3.0,6.0,4.0,-0.22899084588748042,-0.1332931789494289,-0.23106592284914734,-0.9361648680885027,72.0625,128.3125,67.6875,0.26611328125,0.3623046875,0.6923828125,-0.24687594529078602,-0.14818659954660776,-0.21587150024561436,-0.933001872845549,26.8125,172.75,48.625,0.37890625,0.11962890625,0.689453125,3.0,4.0,22.0,35.0,28.0,3.0,3.0,2.0,3.0,3.0,20.0,30.0,26.0,3.0,3.0,2.0,-2.0,-2.0,-2.0,-2.0,-2.0,-2.0,-2.0,-2.0,-2.0,-2.0,-2.0,-2.0,-2.0,-2.0,-2.0,-2.0,-2.0,-2.0,-2.0,-2.0,-2.0,-2.0,-2.0,-2.0,-2.0,-2.0,-2.0,-2.0,-2.0,-2.0,-2.0,-2.0,-2.0,-2.0,-2.0,-2.0
0.7346115512806012,0.5260392479381987,0.3788727792936179,0.2002098785376296,103.875,-118.9375,23.5,-0.0888671875,0.69189453125,0.13671875,0.7368547274153061,0.5066181442633401,0.392842695961308,0.21461077050962693,84.5,-88.25,33.75,-0.35498046875,0.580078125,0.0859375,4.0,4.0,7.0,11.0,3.0,3.0,7.0,6.0,3.0,3.0,5.0,9.0,3.0,3.0,7.0,5.0,-0.21013620084084741,-0.12298125027426882,-0.24944137462577504,-0.937281915862008,94.4375,107.6875,73.75,0.244140625,0.564453125,0.54638671875,-0.22899084588748042,-0.1332931789494289,-0.23106592284914734,-0.9361648680885027,72.0625,128.3125,67.6875,0.26611328125,0.3623046875,0.6923828125,3.0,4.0,23.0,38.0,29.0,3.0,3.0,2.0,3.0,4.0,22.0,35.0,28.0,3.0,3.0,2.0,-2.0,-2.0,-2.0,-2.0,-2.0,-2.0,-2.0,-2.0,-2.0,-2.0,-2.0,-2.0,-2.0,-2.0,-2.0,-2.0,-2.0,-2.0,-2.0,-2.0,-2.0,-2.0,-2.0,-2.0,-2.0,-2.0,-2.0,-2.0,-2.0,-2.0,-2.0,-2.0,-2.0,-2.0,-2.0,-2.0
0.7325370128549361,0.5448400447248696,0.36330808270248977,0.1858657781970903,99.5,-124.625,22.6875,0.20361328125,0.6748046875,0.14599609375,0.7346115512806012,0.5260392479381987,0.3788727792936179,0.2002098785376296,103.875,-118.9375,23.5,-0.0888671875,0.69189453125,0.13671875,4.0,5.0,8.0,12.0,4.0,3.0,7.0,6.0,4.0,4.0,7.0,11.0,3.0,3.0,7.0,6.0,-0.19292181957676954,-0.10936915554621039,-0.2651225511678225,-0.9383653831043441,72.75,119.1875,62.8125,0.19384765625,0.66796875,0.4130859375,-0.21013620084084741,-0.12298125027426882,-0.24944137462577504,-0.937281915862008,94.4375,107.6875,73.75,0.244140625,0.564453125,0.54638671875,3.0,4.0,23.0,40.0,31.0,3.0,3.0,2.0,3.0,4.0,23.0,38.0,29.0,3.0,3.0,2.0,-2.0,-2.0,-2.0,-2.0,-2.0,-2.0,-2.0,-2.0,-2.0,-2.0,-2.0,-2.0,-2.0,-2.0,-2.0,-2.0,-2.0,-2.0,-2.0,-2.0,-2.0,-2.0,-2.0,-2.0,-2.0,-2.0,-2.0,-2.0,-2.0,-2.0,-2.0,-2.0,-2.0,-2.0,-2.0,-2.0
0.7301419378304553,0.5611264700280368,0.34407374214598535,0.18342054198131738,62.75,-94.1875,47.1875,0.39111328125,0.63623046875,0.115234375,0.7325370128549361,0.5448400447248696,0.36330808270248977,0.1858657781970903,99.5,-124.625,22.6875,0.20361328125,0.6748046875,0.14599609375,5.0,5.0,9.0,13.0,4.0,4.0,8.0,7.0,4.0,5.0,8.0,12.0,4.0,3.0,7.0,6.0,-0.17956007946320246,-0.0941134067070898,-0.27678618639212205,-0.9393030669404098,47.5625,116.6875,42.6875,0.099609375,0.703125,0.52099609375,-0.19292181957676954,-0.10936915554621039,-0.2651225511678225,-0.9383653831043441,72.75,119.1875,62.8125,0.19384765625,0.66796875,0.4130859375,3.0,4.0,23.0,40.0,31.0,3.0,3.0,2.0,3.0,4.0,23.0,40.0,31.0,3.0,3.0,2.0,-2.0,-2.0,-2.0,-2.0,-2.0,-2.0,-2.0,-2.0,-2.0,-2.0,-2.0,-2.0,-2.0,-2.0,-2.0,-2.0,-2.0,-2.0,-2.0,-2.0,-2.0,-2.0,-2.0,-2.0,-2.0,-2.0,-2.0,-2.0,-2.0,-2.0,-2.0,-2.0,-2.0,-2.0,-2.0,-2.0
0.7292820767901043,0.5709494933289785,0.3254546395584898,0.19037753578074448,4.75,-61.8125,80.9375,0.24365234375,0.68017578125,0.00537109375,0.7301419378304553,0.5611264700280368,0.34407374214598535,0.18342054198131738,62.75,-94.1875,47.1875,0.39111328125,0.63623046875,0.115234375,5.0,5.0,10.0,13.0,4.0,4.0,8.0,7.0,5.0,5.0,9.0,13.0,4.0,4.0,8.0,7.0,-0.16960410679143934,-0.08330680308395634,-0.28769836610825655,-0.9388951345374245,39.25,89.0,28.5,0.1171875,0.67822265625,0.6240234375,-0.17956007946320246,-0.0941134067070898,-0.27678618639212205,-0.9393030669404098,47.5625,116.6875,42.6875,0.099609375,0.703125,0.52099609375,3.0,3.0,22.0,39.0,30.0,3.0,3.0,2.0,3.0,4.0,23.0,40.0,31.0,3.0,3.0,2.0,-2.0,-2.0,-2.0,-2.0,-2.0,-2.0,-2.0,-2.0,-2.0,-2.0,-2.0,-2.0,-2.0,-2.0,-2.0,-2.0,-2.0,-2.0,-2.0,-2.0,-2.0,-2.0,-2.0,-2.0,-2.0,-2.0,-2.0,-2.0,-2.0,-2.0,-2.0,-2.0,-2.0,-2.0,-2.0,-2.0
0.7289143578617301,0.5796767423055477,0.3057387387815614,0.19794584345550081,-5.0625,-66.5625,99.75,0.0087890625,0.80615234375,0.0107421875,0.7292820767901043,0.5709494933289785,0.3254546395584898,0.19037753578074448,4.75,-61.8125,80.9375,0.24365234375,0.68017578125,0.00537109375,5.0,5.0,10.0,14.0,4.0,4.0,8.0,7.0,5.0,5.0,10.0,13.0,4.0,4.0,8.0,7.0,-0.16130632798441474,-0.07549599989281916,-0.29411093248463666,-0.9390310867832786,20.875,68.1875,24.75,0.14404296875,0.5517578125,0.5419921875,-0.16960410679143934,-0.08330680308395634,-0.28769836610825655,-0.9388951345374245,39.25,89.0,28.5,0.1171875,0.67822265625,0.6240234375,3.0,4.0,20.0,37.0,29.0,3.0,3.0,2.0,3.0,3.0,22.0,39.0,30.0,3.0,3.0,2.0,-2.0,-2.0,-2.0,-2.0,-2.0,-2.0,-2.0,-2.0,-2.0,-2.0,-2.0,-2.0,-2.0,-2.0,-2.0,-2.0,-2.0,-2.0,-2.0,-2.0,-2.0,-2.0,-2.0,-2.0,-2.0,-2.0,-2.0,-2.0,-2.0,-2.0,-2.0,-2.0,-2.0,-2.0,-2.0,-2.0
0.7257689950365381,0.5933115754209547,0.28615685859809004,0.19838092799568957,36.625,-89.8125,81.25,0.044921875,0.7919921875,-0.00927734375,0.7289143578617301,0.5796767423055477,0.3057387387815614,0.19794584345550081,-5.0625,-66.5625,99.75,0.0087890625,0.80615234375,0.0107421875,5.0,5.0,10.0,14.0,4.0,4.0,8.0,7.0,5.0,5.0,10.0,14.0,4.0,4.0,8.0,7.0,-0.15343525009608866,-0.07024819922855928,-0.2960677797200183,-0.9401418426730905,-5.5625,49.5,30.3125,0.12841796875,0.57373046875,0.49267578125,-0.16130632798441474,-0.07549599989281916,-0.29411093248463666,-0.9390310867832786,20.875,68.1875,24.75,0.14404296875,0.5517578125,0.5419921875,5.0,5.0,18.0,34.0,26.0,3.0,3.0,3.0,3.0,4.0,20.0,37.0,29.0,3.0,3.0,2.0,-2.0,-2.0,-2.0,-2.0,-2.0,-2.0,-2.0,-2.0,-2.0,-2.0,-2.0,-2.0,-2.0,-2.0,-2.0,-2.0,-2.0,-2.0,-2.0,-2.0,-2.0,-2.0,-2.0,-2.0,-2.0,-2.0,-2.0,-2.0,-2.0,-2.0,-2.0,-2.0,-2.0,-2.0,-2.0,-2.0
0.722750914726207,0.6058021137283679,0.2683840699308447,0.1964813102359311,40.1875,-87.1875,50.3125,0.26806640625,0.7265625,0.01123046875,0.7257689950365381,0.5933115754209547,0.28615685859809004,0.19838092799568957,36.625,-89.8125,81.25,0.044921875,0.7919921875,-0.00927734375,6.0,6.0,11.0,14.0,4.0,4.0,7.0,8.0,5.0,5.0,10.0,14.0,4.0,4.0,8.0,7.0,-0.14678556479943208,-0.06713684876481302,-0.2968059050393506,-0.9411975861838013,-12.0,32.75,29.625,0.09130859375,0.68017578125,0.61376953125,-0.15343525009608866,-0.07024819922855928,-0.2960677797200183,-0.9401418426730905,-5.5625,49.5,30.3125,0.12841796875,0.57373046875,0.49267578125,6.0,6.0,16.0,29.0,22.0,3.0,3.0,3.0,5.0,5.0,18.0,34.0,26.0,3.0,3.0,3.0,-2.0,-2.0,-2.0,-2.0,-2.0,-2.0,-2.0,-2.0,-2.0,-2.0,-2.0,-2.0,-2.0,-2.0,-2.0,-2.0,-2.0,-2.0,-2.0,-2.0,-2.0,-2.0,-2.0,-2.0,-2.0,-2.0,-2.0,-2.0,-2.0,-2.0,-2.0,-2.0,-2.0,-2.0,-2.0,-2.0
0.7204406424942285,0.6143552543170727,0.25343298717580587,0.1982539360180678,23.625,-58.6875,46.75,0.32080078125,0.72412109375,0.083984375,0.722750914726207,0.6058021137283679,0.2683840699308447,0.1964813102359311,40.1875,-87.1875,50.3125,0.26806640625,0.7265625,0.01123046875,6.0,6.0,11.0,14.0,4.0,3.0,6.0,8.0,6.0,6.0,11.0,14.0,4.0,4.0,7.0,8.0,-0.14171654361110775,-0.06731840982043577,-0.29832492040098824,-0.9414812238350336,1.125,13.375,24.125,0.11767578125,0.6806640625,0.740234375,-0.14678556479943208,-0.06713684876481302,-0.2968059050393506,-0.9411975861838013,-12.0,32.75,29.625,0.09130859375,0.68017578125,0.61376953125,7.0,6.0,14.0,27.0,20.0,3.0,3.0,3.0,6.0,6.0,16.0,29.0,22.0,3.0,3.0,3.0,-2.0,-2.0,-2.0,-2.0,-2.0,-2.0,-2.0,-2.0,-2.0,-2.0,-2.0,-2.0,-2.0,-2.0,-2.0,-2.0,-2.0,-2.0,-2.0,-2.0,-2.0,-2.0,-2.0,-2.0,-2.0,-2.0,-2.0,-2.0,-2.0,-2.0,-2.0,-2.0,-2.0,-2.0,-2.0,-2.0
0.7168257090496437,0.6225836369470679,0.24012196350487894,0.20221760678486628,26.5625,-42.9375,61.625,0.166015625,0.908203125,0.1083984375,0.7204406424942285,0.6143552543170727,0.25343298717580587,0.1982539360180678,23.625,-58.6875,46.75,0.32080078125,0.72412109375,0.083984375,6.0,6.0,10.0,13.0,4.0,3.0,5.0,8.0,6.0,6.0,11.0,14.0,4.0,3.0,6.0,8.0,-0.13719924935501518,-0.06884375145571936,-0.29856704975299564,-0.9419631737301175,-2.5625,9.0,21.3125,0.1953125,0.5595703125,0.6337890625,-0.14171654361110775,-0.06731840982043577,-0.29832492040098824,-0.9414812238350336,1.125,13.375,24.125,0.11767578125,0.6806640625,0.740234375,7.0,6.0,11.0,23.0,17.0,3.0,3.0,4.0,7.0,6.0,14.0,27.0,20.0,3.0,3.0,3.0,-2.0,-2.0,-2.0,-2.0,-2.0,-2.0,-2.0,-2.0,-2.0,-2.0,-2.0,-2.0,-2.0,-2.0,-2.0,-2.0,-2.0,-2.0,-2.0,-2.0,-2.0,-2.0,-2.0,-2.0,-2.0,-2.0,-2.0,-2.0,-2.0,-2.0,-2.0,-2.0,-2.0,-2.0,-2.0,-2.0
0.7107387293012658,0.6324256247243571,0.2290185256216377,0.2060068027646661,41.625,-33.375,58.25,0.18310546875,1.0400390625,0.06494140625,0.7168257090496437,0.6225836369470679,0.24012196350487894,0.20221760678486628,26.5625,-42.9375,61.625,0.166015625,0.908203125,0.1083984375,5.0,6.0,10.0,12.0,4.0,2.0,4.0,7.0,6.0,6.0,10.0,13.0,4.0,3.0,5.0,8.0,-0.13232174694090093,-0.070799458695316,-0.30095873347120966,-0.9417548686799361,10.375,6.875,23.4375,0.1728515625,0.59716796875,0.67529296875,-0.13719924935501518,-0.06884375145571936,-0.29856704975299564,-0.9419631737301175,-2.5625,9.0,21.3125,0.1953125,0.5595703125,0.6337890625,7.0,5.0,10.0,23.0,17.0,3.0,3.0,4.0,7.0,6.0,11.0,23.0,17.0,3.0,3.0,4.0,-2.0,-2.0,-2.0,-2.0,-2.0,-2.0,-2.0,-2.0,-2.0,-2.0,-2.0,-2.0,-2.0,-2.0,-2.0,-2.0,-2.0,-2.0,-2.0,-2.0,-2.0,-2.0,-2.0,-2.0,-2.0,-2.0,-2.0,-2.0,-2.0,-2.0,-2.0,-2.0,-2.0,-2.0,-2.0,-2.0
0.7057278173138956,0.6392568267365878,0.22218035417943088,0.20960641105828726,27.375,-15.1875,37.375,0.19580078125,1.056640625,0.00390625,0.7107387293012658,0.6324256247243571,0.2290185256216377,0.2060068027646661,41.625,-33.375,58.25,0.18310546875,1.0400390625,0.06494140625,6.0,6.0,9.0,10.0,4.0,2.0,4.0,7.0,5.0,6.0,10.0,12.0,4.0,2.0,4.0,7.0,-0.1278039133692632,-0.07330109835553253,-0.3074251727034283,-0.9400972672525125,36.6875,2.125,22.625,0.12353515625,0.65087890625,0.75732421875,-0.13232174694090093,-0.070799458695316,-0.30095873347120966,-0.9417548686799361,10.375,6.875,23.4375,0.1728515625,0.59716796875,0.67529296875,7.0,5.0,10.0,24.0,16.0,3.0,3.0,4.0,7.0,5.0,10.0,23.0,17.0,3.0,3.0,4.0,-2.0,-2.0,-2.0,-2.0,-2.0,-2.0,-2.0,-2.0,-2.0,-2.0,-2.0,-2.0,-2.0,-2.0,-2.0,-2.0,-2.0,-2.0,-2.0,-2.0,-2.0,-2.0,-2.0,-2.0,-2.0,-2.0,-2.0,-2.0,-2.0,-2.0,-2.0,-2.0,-2.0,-2.0,-2.0,-2.0
0.7030773240326376,0.641979971714149,0.21893726550091772,0.21356606969269892,2.25,1.625,27.0625,0.0693359375,1.04736328125,-0.05029296875,0.7057278173138956,0.6392568267365878,0.22218035417943088,0.20960641105828726,27.375,-15.1875,37.375,0.19580078125,1.056640625,0.00390625,7.0,6.0,8.0,8.0,4.0,3.0,6.0,7.0,6.0,6.0,9.0,10.0,4.0,2.0,4.0,7.0,-0.12408345525501158,-0.07617125044675575,-0.31445054671609424,-0.9380416250931003,40.8125,-2.3125,18.9375,0.10498046875,0.66064453125,0.75927734375,-0.1278039133692632,-0.07330109835553253,-0.3074251727034283,-0.9400972672525125,36.6875,2.125,22.625,0.12353515625,0.65087890625,0.75732421875,7.0,5.0,9.0,23.0,15.0,3.0,2.0,4.0,7.0,5.0,10.0,24.0,16.0,3.0,3.0,4.0,-2.0,-2.0,-2.0,-2.0,-2.0,-2.0,-2.0,-2.0,-2.0,-2.0,-2.0,-2.0,-2.0,-2.0,-2.0,-2.0,-2.0,-2.0,-2.0,-2.0,-2.0,-2.0,-2.0,-2.0,-2.0,-2.0,-2.0,-2.0,-2.0,-2.0,-2.0,-2.0,-2.0,-2.0,-2.0,-2.0
0.701446593389732,0.6435217050215755,0.21582972104299447,0.21741670428595766,-2.125,1.9375,29.8125,-0.01025390625,1.00927734375,0.0,0.7030773240326376,0.641979971714149,0.21893726550091772,0.21356606969269892,2.25,1.625,27.0625,0.0693359375,1.04736328125,-0.05029296875,7.0,6.0,8.0,7.0,4.0,3.0,7.0,7.0,7.0,6.0,8.0,8.0,4.0,3.0,6.0,7.0,-0.12188363074387072,-0.07934337504608509,-0.319814834801143,-0.9362518255438042,34.125,-8.5625,13.125,0.0986328125,0.6630859375,0.81689453125,-0.12408345525501158,-0.07617125044675575,-0.31445054671609424,-0.9380416250931003,40.8125,-2.3125,18.9375,0.10498046875,0.66064453125,0.75927734375,7.0,5.0,7.0,18.0,14.0,2.0,3.0,4.0,7.0,5.0,9.0,23.0,15.0,3.0,2.0,4.0,-2.0,-2.0,-2.0,-2.0,-2.0,-2.0,-2.0,-2.0,-2.0,-2.0,-2.0,-2.0,-2.0,-2.0,-2.0,-2.0,-2.0,-2.0,-2.0,-2.0,-2.0,-2.0,-2.0,-2.0,-2.0,-2.0,-2.0,-2.0,-2.0,-2.0,-2.0,-2.0,-2.0,-2.0,-2.0,-2.0
0.6988962742593116,0.6461585990662945,0.21253771414593212,0.2210221317985124,8.75,0.0,29.625,0.041015625,0.91845703125,0.02978515625,0.701446593389732,0.6435217050215755,0.21582972104299447,0.21741670428595766,-2.125,1.9375,29.8125,-0.01025390625,1.00927734375,0.0,8.0,6.0,6.0,5.0,4.0,3.0,7.0,8.0,7.0,6.0,8.0,7.0,4.0,3.0,7.0,7.0,-0.12023777341275865,-0.08276265012573641,-0.3251912978391767,-0.9343146372601571,33.6875,-11.9375,10.875,0.09130859375,0.68408203125,0.80126953125,-0.12188363074387072,-0.07934337504608509,-0.319814834801143,-0.9362518255438042,34.125,-8.5625,13.125,0.0986328125,0.6630859375,0.81689453125,7.0,5.0,6.0,16.0,12.0,2.0,3.0,4.0,7.0,5.0,7.0,18.0,14.0,2.0,3.0,4.0,-2.0,-2.0,-2.0,-2.0,-2.0,-2.0,-2.0,-2.0,-2.0,-2.0,-2.0,-2.0,-2.0,-2.0,-2.0,-2.0,-2.0,-2.0,-2.0,-2.0,-2.0,-2.0,-2.0,-2.0,-2.0,-2.0,-2.0,-2.0,-2.0,-2.0,-2.0,-2.0,-2.0,-2.0,-2.0,-2.0
0.694992450743639,0.6493961605007531,0.21266060937913564,0.22370870647948682,21.0,11.0,16.1875,0.03466796875,0.9638671875,0.01806640625,0.6988962742593116,0.6461585990662945,0.21253771414593212,0.2210221317985124,8.75,0.0,29.625,0.041015625,0.91845703125,0.02978515625,8.0,6.0,5.0,4.0,4.0,3.0,7.0,8.0,8.0,6.0,6.0,5.0,4.0,3.0,7.0,8.0,-0.1191363908330386,-0.08593444584678195,-0.3288457345329979,-0.9328892079318623,24.25,-13.3125,9.3125,0.07958984375,0.67919921875,0.81591796875,-0.12023777341275865,-0.08276265012573641,-0.3251912978391767,-0.9343146372601571,33.6875,-11.9375,10.875,0.09130859375,0.68408203125,0.80126953125,7.0,5.0,6.0,17.0,12.0,2.0,3.0,4.0,7.0,5.0,6.0,16.0,12.0,2.0,3.0,4.0,-2.0,-2.0,-2.0,-2.0,-2.0,-2.0,-2.0,-2.0,-2.0,-2.0,-2.0,-2.0,-2.0,-2.0,-2.0,-2.0,-2.0,-2.0,-2.0,-2.0,-2.0,-2.0,-2.0,-2.0,-2.0,-2.0,-2.0,-2.0,-2.0,-2.0,-2.0,-2.0,-2.0,-2.0,-2.0,-2.0
0.6900121605185905,0.6538788390655161,0.21545713636714944,0.22339181844299347,29.6875,10.0,6.1875,-0.09228515625,1.1103515625,-0.09423828125,0.694992450743639,0.6493961605007531,0.21266060937913564,0.22370870647948682,21.0,11.0,16.1875,0.03466796875,0.9638671875,0.01806640625,11.0,8.0,5.0,4.0,4.0,4.0,8.0,8.0,8.0,6.0,5.0,4.0,4.0,3.0,7.0,8.0,-0.11955955275860129,-0.08849481955077686,-0.3301772232894502,-0.9321250889648379,9.0625,-14.25,1.5625,0.0869140625,0.703125,0.8203125,-0.1191363908330386,-0.08593444584678195,-0.3288457345329979,-0.9328892079318623,24.25,-13.3125,9.3125,0.07958984375,0.67919921875,0.81591796875,8.0,5.0,7.0,19.0,13.0,2.0,3.0,4.0,7.0,5.0,6.0,17.0,12.0,2.0,3.0,4.0,-2.0,-2.0,-2.0,-2.0,-2.0,-2.0,-2.0,-2.0,-2.0,-2.0,-2.0,-2.0,-2.0,-2.0,-2.0,-2.0,-2.0,-2.0,-2.0,-2.0,-2.0,-2.0,-2.0,-2.0,-2.0,-2.0,-2.0,-2.0,-2.0,-2.0,-2.0,-2.0,-2.0,-2.0,-2.0,-2.0
0.6868146039462257,0.6570884475187629,0.21589612994648066,0.22340396822282138,22.5625,1.1875,14.875,-0.119140625,1.0703125,0.0107421875,0.6900121605185905,0.6538788390655161,0.21545713636714944,0.22339181844299347,29.6875,10.0,6.1875,-0.09228515625,1.1103515625,-0.09423828125,12.0,9.0,5.0,4.0,5.0,4.0,9.0,10.0,11.0,8.0,5.0,4.0,4.0,4.0,8.0,8.0,-0.12109015075879566,-0.09026831299004978,-0.32799318053314913,-0.9325284341953824,-8.6875,-14.6875,-3.125,0.0830078125,0.62939453125,0.8359375,-0.11955955275860129,-0.08849481955077686,-0.3301772232894502,-0.9321250889648379,9.0625,-14.25,1.5625,0.0869140625,0.703125,0.8203125,8.0,5.0,7.0,19.0,13.0,2.0,3.0,4.0,8.0,5.0,7.0,19.0,13.0,2.0,3.0,4.0,-2.0,-2.0,-2.0,-2.0,-2.0,-2.0,-2.0,-2.0,-2.0,-2.0,-2.0,-2.0,-2.0,-2.0,-2.0,-2.0,-2.0,-2.0,-2.0,-2.0,-2.0,-2.0,-2.0,-2.0,-2.0,-2.0,-2.0,-2.0,-2.0,-2.0,-2.0,-2.0,-2.0,-2.0,-2.0,-2.0
0.6865022941451865,0.6575699488597933,0.21357442226496023,0.22517177586037104,-1.3125,-2.9375,23.1875,-0.0908203125,1.01318359375,0.052734375,0.6868146039462257,0.6570884475187629,0.21589612994648066,0.22340396822282138,22.5625,1.1875,14.875,-0.119140625,1.0703125,0.0107421875,13.0,10.0,5.0,3.0,5.0,4.0,9.0,10.0,12.0,9.0,5.0,4.0,5.0,4.0,9.0,10.0,-0.12231091965928247,-0.0924655904609845,-0.3250028179569257,-0.9332005796359426,-10.5625,-15.5625,-1.1875,0.10595703125,0.59130859375,0.85791015625,-0.12109015075879566,-0.09026831299004978,-0.32799318053314913,-0.9325284341953824,-8.6875,-14.6875,-3.125,0.0830078125,0.62939453125,0.8359375,7.0,5.0,7.0,20.0,13.0,2.0,3.0,4.0,8.0,5.0,7.0,19.0,13.0,2.0,3.0,4.0,-2.0,-2.0,-2.0,-2.0,-2.0,-2.0,-2.0,-2.0,-2.0,-2.0,-2.0,-2.0,-2.0,-2.0,-2.0,-2.0,-2.0,-2.0,-2.0,-2.0,-2.0,-2.0,-2.0,-2.0,-2.0,-2.0,-2.0,-2.0,-2.0,-2.0,-2.0,-2.0,-2.0,-2.0,-2.0,-2.0
0.6887368495456856,0.6549225802574624,0.2127125062625589,0.22687299448434184,-18.75,3.1875,8.75,-0.06640625,1.03369140625,0.10107421875,0.6865022941451865,0.6575699488597933,0.21357442226496023,0.22517177586037104,-1.3125,-2.9375,23.1875,-0.0908203125,1.01318359375,0.052734375,14.0,11.0,4.0,4.0,4.0,4.0,9.0,10.0,13.0,10.0,5.0,3.0,5.0,4.0,9.0,10.0,-0.12267239692972964,-0.09447605494886642,-0.32315937400145195,-0.9335918685741663,-3.3125,-12.25,1.9375,0.1201171875,0.61474609375,0.8974609375,-0.12231091965928247,-0.0924655904609845,-0.3250028179569257,-0.9332005796359426,-10.5625,-15.5625,-1.1875,0.10595703125,0.59130859375,0.85791015625,6.0,4.0,7.0,21.0,13.0,2.0,3.0,4.0,7.0,5.0,7.0,20.0,13.0,2.0,3.0,4.0,-2.0,-2.0,-2.0,-2.0,-2.0,-2.0,-2.0,-2.0,-2.0,-2.0,-2.0,-2.0,-2.0,-2.0,-2.0,-2.0,-2.0,-2.0,-2.0,-2.0,-2.0,-2.0,-2.0,-2.0,-2.0,-2.0,-2.0,-2.0,-2.0,-2.0,-2.0,-2.0,-2.0,-2.0,-2.0,-2.0
0.6906586590784599,0.652081878474166,0.21479697934574463,0.2272489781483965,-14.0,10.5,-4.4375,-0.1142578125,1.04931640625,0.08984375,0.6887368495456856,0.6549225802574624,0.2127125062625589,0.22687299448434184,-18.75,3.1875,8.75,-0.06640625,1.03369140625,0.10107421875,15.0,12.0,4.0,4.0,4.0,5.0,9.0,10.0,14.0,11.0,4.0,4.0,4.0,4.0,9.0,10.0,-0.1232222443040248,-0.09490370970418949,-0.32157404915200927,-0.9340233911980166,-3.0,-5.1875,-0.875,0.09814453125,0.6240234375,0.91796875,-0.12267239692972964,-0.09447605494886642,-0.32315937400145195,-0.9335918685741663,-3.3125,-12.25,1.9375,0.1201171875,0.61474609375,0.8974609375,5.0,3.0,8.0,23.0,14.0,2.0,2.0,4.0,6.0,4.0,7.0,21.0,13.0,2.0,3.0,4.0,-2.0,-2.0,-2.0,-2.0,-2.0,-2.0,-2.0,-2.0,-2.0,-2.0,-2.0,-2.0,-2.0,-2.0,-2.0,-2.0,-2.0,-2.0,-2.0,-2.0,-2.0,-2.0,-2.0,-2.0,-2.0,-2.0,-2.0,-2.0,-2.0,-2.0,-2.0,-2.0,-2.0,-2.0,-2.0,-2.0
0.6894122599750308,0.6528511317125214,0.21716943966278526,0.2265691287319446,12.75,6.625,4.0,-0.1865234375,0.9755859375,0.06982421875,0.6906586590784599,0.652081878474166,0.21479697934574463,0.2272489781483965,-14.0,10.5,-4.4375,-0.1142578125,1.04931640625,0.08984375,15.0,12.0,4.0,4.0,5.0,5.0,10.0,10.0,15.0,12.0,4.0,4.0,4.0,5.0,9.0,10.0,-0.12334487504927974,-0.09411073593567015,-0.31925632923442965,-0.9348821355788556,-3.375,1.75,-0.5625,0.08984375,0.5302734375,0.916015625,-0.1232222443040248,-0.09490370970418949,-0.32157404915200927,-0.9340233911980166,-3.0,-5.1875,-0.875,0.09814453125,0.6240234375,0.91796875,5.0,3.0,8.0,24.0,15.0,2.0,2.0,3.0,5.0,3.0,8.0,23.0,14.0,2.0,2.0,4.0,-2.0,-2.0,-2.0,-2.0,-2.0,-2.0,-2.0,-2.0,-2.0,-2.0,-2.0,-2.0,-2.0,-2.0,-2.0,-2.0,-2.0,-2.0,-2.0,-2.0,-2.0,-2.0,-2.0,-2.0,-2.0,-2.0,-2.0,-2.0,-2.0,-2.0,-2.0,-2.0,-2.0,-2.0,-2.0,-2.0
0.6873056176810058,0.6556260781093858,0.21687361097874014,0.2252360327924433,16.0,-7.625,13.375,-0.16357421875,0.99267578125,-0.0087890625,0.6894122599750308,0.6528511317125214,0.21716943966278526,0.2265691287319446,12.75,6.625,4.0,-0.1865234375,0.9755859375,0.06982421875,16.0,13.0,4.0,4.0,6.0,6.0,11.0,10.0,15.0,12.0,4.0,4.0,5.0,5.0,10.0,10.0,-0.12237158176849856,-0.09399114011146523,-0.3204853744969506,-0.9346015120304332,16.25,2.0,3.6875,0.09326171875,0.53759765625,0.87646484375,-0.12334487504927974,-0.09411073593567015,-0.31925632923442965,-0.9348821355788556,-3.375,1.75,-0.5625,0.08984375,0.5302734375,0.916015625,6.0,3.0,8.0,23.0,14.0,2.0,3.0,3.0,5.0,3.0,8.0,24.0,15.0,2.0,2.0,3.0,-2.0,-2.0,-2.0,-2.0,-2.0,-2.0,-2.0,-2.0,-2.0,-2.0,-2.0,-2.0,-2.0,-2.0,-2.0,-2.0,-2.0,-2.0,-2.0,-2.0,-2.0,-2.0,-2.0,-2.0,-2.0,-2.0,-2.0,-2.0,-2.0,-2.0,-2.0,-2.0,-2.0,-2.0,-2.0,-2.0
0.6858201188695993,0.6578037932589598,0.21637881108870857,0.22388645389940282,8.0,-8.125,2.625,-0.0234375,1.18359375,-0.05419921875,0.6873056176810058,0.6556260781093858,0.21687361097874014,0.2252360327924433,16.0,-7.625,13.375,-0.16357421875,0.99267578125,-0.0087890625,16.0,13.0,4.0,4.0,6.0,6.0,11.0,10.0,16.0,13.0,4.0,4.0,6.0,6.0,11.0,10.0,-0.1207228179150758,-0.09447872706397237,-0.3246943333206285,-0.9333131099885436,31.75,1.0625,7.125,0.07763671875,0.5859375,0.8447265625,-0.12237158176849856,-0.09399114011146523,-0.3204853744969506,-0.9346015120304332,16.25,2.0,3.6875,0.09326171875,0.53759765625,0.87646484375,6.0,3.0,6.0,18.0,11.0,1.0,3.0,4.0,6.0,3.0,8.0,23.0,14.0,2.0,3.0,3.0,-2.0,-2.0,-2.0,-2.0,-2.0,-2.0,-2.0,-2.0,-2.0,-2.0,-2.0,-2.0,-2.0,-2.0,-2.0,-2.0,-2.0,-2.0,-2.0,-2.0,-2.0,-2.0,-2.0,-2.0,-2.0,-2.0,-2.0,-2.0,-2.0,-2.0,-2.0,-2.0,-2.0,-2.0,-2.0,-2.0
0.6885261128909805,0.6547712422855982,0.21583584531759814,0.2249917776698718,1.875,2.625,-0.8125,-0.00830078125,0.89453125,0.41650390625,0.6858201188695993,0.6578037932589598,0.21637881108870857,0.22388645389940282,8.0,-8.125,2.625,-0.0234375,1.18359375,-0.05419921875,18.0,15.0,5.0,4.0,5.0,6.0,10.0,10.0,16.0,13.0,4.0,4.0,6.0,6.0,11.0,10.0,-0.11962438157503265,-0.09515020963034485,-0.3289060164835974,-0.9319105521781498,27.75,-1.5,5.1875,0.06640625,0.6591796875,0.82666015625,-0.1207228179150758,-0.09447872706397237,-0.3246943333206285,-0.9333131099885436,31.75,1.0625,7.125,0.07763671875,0.5859375,0.8447265625,6.0,3.0,6.0,18.0,10.0,1.0,3.0,4.0,6.0,3.0,6.0,18.0,11.0,1.0,3.0,4.0,-2.0,-2.0,-2.0,-2.0,-2.0,-2.0,-2.0,-2.0,-2.0,-2.0,-2.0,-2.0,-2.0,-2.0,-2.0,-2.0,-2.0,-2.0,-2.0,-2.0,-2.0,-2.0,-2.0,-2.0,-2.0,-2.0,-2.0,-2.0,-2.0,-2.0,-2.0,-2.0,-2.0,-2.0,-2.0,-2.0
0.683940713526132,0.659342042615732,0.218824404996982,0.22273089367754179,9.125,2.5,2.0625,-0.15576171875,1.07373046875,-0.431640625,0.6885261128909805,0.6547712422855982,0.21583584531759814,0.2249917776698718,1.875,2.625,-0.8125,-0.00830078125,0.89453125,0.41650390625,19.0,16.0,5.0,5.0,4.0,5.0,8.0,10.0,18.0,15.0,5.0,4.0,5.0,6.0,10.0,10.0,-0.11913824124227393,-0.09576224411328267,-0.33092599590963584,-0.9311947472507035,12.0625,-3.125,3.8125,0.0693359375,0.6640625,0.78173828125,-0.11962438157503265,-0.09515020963034485,-0.3289060164835974,-0.9319105521781498,27.75,-1.5,5.1875,0.06640625,0.6591796875,0.82666015625,6.0,3.0,6.0,18.0,10.0,1.0,2.0,3.0,6.0,3.0,6.0,18.0,10.0,1.0,3.0,4.0,-2.0,-2.0,-2.0,-2.0,-2.0,-2.0,-2.0,-2.0,-2.0,-2.0,-2.0,-2.0,-2.0,-2.0,-2.0,-2.0,-2.0,-2.0,-2.0,-2.0,-2.0,-2.0,-2.0,-2.0,-2.0,-2.0,-2.0,-2.0,-2.0,-2.0,-2.0,-2.0,-2.0,-2.0,-2.0,-2.0
0.6880346382769186,0.654218883343862,0.2196803285272028,0.22438035222728464,-10.5,10.5,1.4375,-0.14794921875,0.78125,0.412109375,0.683940713526132,0.659342042615732,0.218824404996982,0.22273089367754179,9.125,2.5,2.0625,-0.15576171875,1.07373046875,-0.431640625,19.0,16.0,6.0,6.0,4.0,5.0,7.0,10.0,19.0,16.0,5.0,5.0,4.0,5.0,8.0,10.0,-0.1192614688739477,-0.096312486122359,-0.3308681795116021,-0.9311427682399929,-1.0625,-4.9375,2.0,0.07080078125,0.6806640625,0.78271484375,-0.11913824124227393,-0.09576224411328267,-0.33092599590963584,-0.9311947472507035,12.0625,-3.125,3.8125,0.0693359375,0.6640625,0.78173828125,6.0,3.0,7.0,20.0,11.0,1.0,3.0,4.0,6.0,3.0,6.0,18.0,10.0,1.0,2.0,3.0,-2.0,-2.0,-2.0,-2.0,-2.0,-2.0,-2.0,-2.0,-2.0,-2.0,-2.0,-2.0,-2.0,-2.0,-2.0,-2.0,-2.0,-2.0,-2.0,-2.0,-2.0,-2.0,-2.0,-2.0,-2.0,-2.0,-2.0,-2.0,-2.0,-2.0,-2.0,-2.0,-2.0,-2.0,-2.0,-2.0
0.6888082777591706,0.6523078479762744,0.21949087876136267,0.2277309423411135,-2.1875,14.75,-11.75,0.30908203125,1.11083984375,0.23876953125,0.6880346382769186,0.654218883343862,0.2196803285272028,0.22438035222728464,-10.5,10.5,1.4375,-0.14794921875,0.78125,0.412109375,18.0,15.0,6.0,6.0,5.0,5.0,7.0,9.0,19.0,16.0,6.0,6.0,4.0,5.0,7.0,10.0,-0.12017659149900232,-0.09686147826760624,-0.3284867523857951,-0.9318110829940419,-10.9375,-6.75,-1.9375,0.10107421875,0.64111328125,0.8427734375,-0.1192614688739477,-0.096312486122359,-0.3308681795116021,-0.9311427682399929,-1.0625,-4.9375,2.0,0.07080078125,0.6806640625,0.78271484375,5.0,3.0,7.0,20.0,11.0,1.0,2.0,3.0,6.0,3.0,7.0,20.0,11.0,1.0,3.0,4.0,-2.0,-2.0,-2.0,-2.0,-2.0,-2.0,-2.0,-2.0,-2.0,-2.0,-2.0,-2.0,-2.0,-2.0,-2.0,-2.0,-2.0,-2.0,-2.0,-2.0,-2.0,-2.0,-2.0,-2.0,-2.0,-2.0,-2.0,-2.0,-2.0,-2.0,-2.0,-2.0,-2.0,-2.0,-2.0,-2.0
0.6841194066597571,0.6558585853461001,0.22303464596134479,0.2282229176927937,12.125,17.5,-12.5625,0.1591796875,1.10791015625,-0.283203125,0.6888082777591706,0.6523078479762744,0.21949087876136267,0.2277309423411135,-2.1875,14.75,-11.75,0.30908203125,1.11083984375,0.23876953125,19.0,15.0,6.0,6.0,6.0,4.0,7.0,10.0,18.0,15.0,6.0,6.0,5.0,5.0,7.0,9.0,-0.12084359470349243,-0.09783448601499918,-0.32438571002477895,-0.9330590281954507,-15.0625,-7.25,-1.125,0.14208984375,0.54150390625,0.8662109375,-0.12017659149900232,-0.09686147826760624,-0.3284867523857951,-0.9318110829940419,-10.9375,-6.75,-1.9375,0.10107421875,0.64111328125,0.8427734375,6.0,3.0,5.0,16.0,10.0,1.0,2.0,4.0,5.0,3.0,7.0,20.0,11.0,1.0,2.0,3.0,-2.0,-2.0,-2.0,-2.0,-2.0,-2.0,-2.0,-2.0,-2.0,-2.0,-2.0,-2.0,-2.0,-2.0,-2.0,-2.0,-2.0,-2.0,-2.0,-2.0,-2.0,-2.0,-2.0,-2.0,-2.0,-2.0,-2.0,-2.0,-2.0,-2.0,-2.0,-2.0,-2.0,-2.0,-2.0,-2.0
0.6801502728314774,0.6588478905988484,0.22901586858688894,0.2255366829500412,13.25,13.5625,-9.125,-0.2216796875,1.00732421875,-0.32568359375,0.6841194066597571,0.6558585853461001,0.22303464596134479,0.2282229176927937,12.125,17.5,-12.5625,0.1591796875,1.10791015625,-0.283203125,21.0,15.0,6.0,7.0,7.0,6.0,8.0,11.0,19.0,15.0,6.0,6.0,6.0,4.0,7.0,10.0,-0.1204788625363126,-0.09917839494503951,-0.32054457246236767,-0.934290996811486,-13.4375,-7.5625,5.6875,0.13671875,0.54345703125,0.86328125,-0.12084359470349243,-0.09783448601499918,-0.32438571002477895,-0.9330590281954507,-15.0625,-7.25,-1.125,0.14208984375,0.54150390625,0.8662109375,6.0,3.0,5.0,14.0,9.0,1.0,3.0,4.0,6.0,3.0,5.0,16.0,10.0,1.0,2.0,4.0,-2.0,-2.0,-2.0,-2.0,-2.0,-2.0,-2.0,-2.0,-2.0,-2.0,-2.0,-2.0,-2.0,-2.0,-2.0,-2.0,-2.0,-2.0,-2.0,-2.0,-2.0,-2.0,-2.0,-2.0,-2.0,-2.0,-2.0,-2.0,-2.0,-2.0,-2.0,-2.0,-2.0,-2.0,-2.0,-2.0
0.6790562617816046,0.6589134692972963,0.23658625354296625,0.22077721338103945,-1.1875,11.6875,-15.5625,-0.46044921875,0.92578125,-0.28759765625,0.6801502728314774,0.6588478905988484,0.22901586858688894,0.2255366829500412,13.25,13.5625,-9.125,-0.2216796875,1.00732421875,-0.32568359375,21.0,15.0,6.0,8.0,7.0,6.0,8.0,11.0,21.0,15.0,6.0,7.0,7.0,6.0,8.0,11.0,-0.11925374635696132,-0.09990705362658427,-0.3201664039859872,-0.9345001863960039,2.5,-4.0625,9.625,0.083984375,0.642578125,0.88818359375,-0.1204788625363126,-0.09917839494503951,-0.32054457246236767,-0.934290996811486,-13.4375,-7.5625,5.6875,0.13671875,0.54345703125,0.86328125,6.0,3.0,5.0,14.0,9.0,1.0,3.0,4.0,6.0,3.0,5.0,14.0,9.0,1.0,3.0,4.0,-2.0,-2.0,-2.0,-2.0,-2.0,-2.0,-2.0,-2.0,-2.0,-2.0,-2.0,-2.0,-2.0,-2.0,-2.0,-2.0,-2.0,-2.0,-2.0,-2.0,-2.0,-2.0,-2.0,-2.0,-2.0,-2.0,-2.0,-2.0,-2.0,-2.0,-2.0,-2.0,-2.0,-2.0,-2.0,-2.0
0.6775288967229026,0.6593393821982697,0.24513117560713304,0.21479497185296345,2.0,10.75,-17.9375,-0.54150390625,0.8818359375,-0.337890625,0.6790562617816046,0.6589134692972963,0.23658625354296625,0.22077721338103945,-1.1875,11.6875,-15.5625,-0.46044921875,0.92578125,-0.28759765625,22.0,15.0,7.0,8.0,8.0,6.0,9.0,11.0,21.0,15.0,6.0,8.0,7.0,6.0,8.0,11.0,-0.11846282469906612,-0.1003973965120885,-0.3207834140228189,-0.9343366220082449,10.5,-3.0625,5.4375,0.0869140625,0.603515625,0.88818359375,-0.11925374635696132,-0.09990705362658427,-0.3201664039859872,-0.9345001863960039,2.5,-4.0625,9.625,0.083984375,0.642578125,0.88818359375,6.0,3.0,5.0,14.0,9.0,1.0,3.0,4.0,6.0,3.0,5.0,14.0,9.0,1.0,3.0,4.0,-2.0,-2.0,-2.0,-2.0,-2.0,-2.0,-2.0,-2.0,-2.0,-2.0,-2.0,-2.0,-2.0,-2.0,-2.0,-2.0,-2.0,-2.0,-2.0,-2.0,-2.0,-2.0,-2.0,-2.0,-2.0,-2.0,-2.0,-2.0,-2.0,-2.0,-2.0,-2.0,-2.0,-2.0,-2.0,-2.0
0.6730931797584266,0.6633267057617505,0.25166982680184935,0.20881942214143262,22.4375,2.4375,-5.8125,-0.49755859375,0.85107421875,-0.3818359375,0.6775288967229026,0.6593393821982697,0.24513117560713304,0.21479497185296345,2.0,10.75,-17.9375,-0.54150390625,0.8818359375,-0.337890625,20.0,13.0,6.0,8.0,9.0,7.0,9.0,12.0,22.0,15.0,7.0,8.0,8.0,6.0,9.0,11.0,-0.11803407897012486,-0.10192187791112126,-0.32120649308157556,-0.9340804439698868,10.3125,-7.4375,3.9375,0.11962890625,0.55029296875,0.82470703125,-0.11846282469906612,-0.1003973965120885,-0.3207834140228189,-0.9343366220082449,10.5,-3.0625,5.4375,0.0869140625,0.603515625,0.88818359375,6.0,3.0,4.0,12.0,8.0,1.0,3.0,4.0,6.0,3.0,5.0,14.0,9.0,1.0,3.0,4.0,-2.0,-2.0,-2.0,-2.0,-2.0,-2.0,-2.0,-2.0,-2.0,-2.0,-2.0,-2.0,-2.0,-2.0,-2.0,-2.0,-2.0,-2.0,-2.0,-2.0,-2.0,-2.0,-2.0,-2.0,-2.0,-2.0,-2.0,-2.0,-2.0,-2.0,-2.0,-2.0,-2.0,-2.0,-2.0,-2.0
0.6704248943209147,0.6671899599255205,0.2511041528802115,0.20575403484666818,3.8125,-15.875,2.75,-0.1162109375,1.083984375,-0.3701171875,0.6730931797584266,0.6633267057617505,0.25166982680184935,0.20881942214143262,22.4375,2.4375,-5.8125,-0.49755859375,0.85107421875,-0.3818359375,21.0,13.0,7.0,8.0,8.0,6.0,9.0,12.0,20.0,13.0,6.0,8.0,9.0,7.0,9.0,12.0,-0.11693537868571173,-0.10417990157437887,-0.3238914690423132,-0.9330417898471612,19.3125,-11.6875,9.5,0.07666015625,0.63427734375,0.79833984375,-0.11803407897012486,-0.10192187791112126,-0.32120649308157556,-0.9340804439698868,10.3125,-7.4375,3.9375,0.11962890625,0.55029296875,0.82470703125,7.0,3.0,4.0,12.0,8.0,2.0,3.0,5.0,6.0,3.0,4.0,12.0,8.0,1.0,3.0,4.0,-2.0,-2.0,-2.0,-2.0,-2.0,-2.0,-2.0,-2.0,-2.0,-2.0,-2.0,-2.0,-2.0,-2.0,-2.0,-2.0,-2.0,-2.0,-2.0,-2.0,-2.0,-2.0,-2.0,-2.0,-2.0,-2.0,-2.0,-2.0,-2.0,-2.0,-2.0,-2.0,-2.0,-2.0,-2.0,-2.0
0.6681834264494843,0.6717846708233328,0.24256517189277887,0.20832283132110074,1.625,-26.875,6.5,0.5830078125,1.19970703125,-0.181640625,0.6704248943209147,0.6671899599255205,0.2511041528802115,0.20575403484666818,3.8125,-15.875,2.75,-0.1162109375,1.083984375,-0.3701171875,21.0,13.0,7.0,8.0,8.0,6.0,10.0,13.0,21.0,13.0,7.0,8.0,8.0,6.0,9.0,12.0,-0.11675515774515238,-0.10711202396379636,-0.3271341586586601,-0.9315999622697365,14.0,-17.6875,7.6875,0.05126953125,0.75732421875,0.728515625,-0.11693537868571173,-0.10417990157437887,-0.3238914690423132,-0.9330417898471612,19.3125,-11.6875,9.5,0.07666015625,0.63427734375,0.79833984375,7.0,3.0,4.0,13.0,9.0,2.0,4.0,6.0,7.0,3.0,4.0,12.0,8.0,2.0,3.0,5.0,-2.0,-2.0,-2.0,-2.0,-2.0,-2.0,-2.0,-2.0,-2.0,-2.0,-2.0,-2.0,-2.0,-2.0,-2.0,-2.0,-2.0,-2.0,-2.0,-2.0,-2.0,-2.0,-2.0,-2.0,-2.0,-2.0,-2.0,-2.0,-2.0,-2.0,-2.0,-2.0,-2.0,-2.0,-2.0,-2.0
0.6666625236767495,0.6747196059991567,0.23878262155497568,0.20808025482640902,5.375,-17.125,14.0,0.041015625,0.9775390625,-0.126953125,0.6681834264494843,0.6717846708233328,0.24256517189277887,0.20832283132110074,1.625,-26.875,6.5,0.5830078125,1.19970703125,-0.181640625,22.0,14.0,8.0,9.0,8.0,7.0,12.0,15.0,21.0,13.0,7.0,8.0,8.0,6.0,10.0,13.0,-0.11949714227029733,-0.11022055104195964,-0.3271219012098027,-0.9308937237225972,-6.625,-23.75,-6.4375,0.0849609375,0.736328125,0.701171875,-0.11675515774515238,-0.10711202396379636,-0.3271341586586601,-0.9315999622697365,14.0,-17.6875,7.6875,0.05126953125,0.75732421875,0.728515625,7.0,3.0,4.0,14.0,9.0,2.0,4.0,6.0,7.0,3.0,4.0,13.0,9.0,2.0,4.0,6.0,-2.0,-2.0,-2.0,-2.0,-2.0,-2.0,-2.0,-2.0,-2.0,-2.0,-2.0,-2.0,-2.0,-2.0,-2.0,-2.0,-2.0,-2.0,-2.0,-2.0,-2.0,-2.0,-2.0,-2.0,-2.0,-2.0,-2.0,-2.0,-2.0,-2.0,-2.0,-2.0,-2.0,-2.0,-2.0,-2.0
0.6665238164404341,0.6754962524309784,0.23578585191477996,0.20941787675889464,0.3125,-7.375,11.125,0.06591796875,1.01318359375,0.00439453125,0.6666625236767495,0.6747196059991567,0.23878262155497568,0.20808025482640902,5.375,-17.125,14.0,0.041015625,0.9775390625,-0.126953125,24.0,15.0,8.0,10.0,8.0,8.0,13.0,17.0,22.0,14.0,8.0,9.0,8.0,7.0,12.0,15.0,-0.12328394079724073,-0.11309165460261736,-0.3241391136505671,-0.9310989112884676,-17.0625,-23.4375,-13.4375,0.150390625,0.6630859375,0.79345703125,-0.11949714227029733,-0.11022055104195964,-0.3271219012098027,-0.9308937237225972,-6.625,-23.75,-6.4375,0.0849609375,0.736328125,0.701171875,7.0,3.0,4.0,14.0,10.0,2.0,3.0,5.0,7.0,3.0,4.0,14.0,9.0,2.0,4.0,6.0,-2.0,-2.0,-2.0,-2.0,-2.0,-2.0,-2.0,-2.0,-2.0,-2.0,-2.0,-2.0,-2.0,-2.0,-2.0,-2.0,-2.0,-2.0,-2.0,-2.0,-2.0,-2.0,-2.0,-2.0,-2.0,-2.0,-2.0,-2.0,-2.0,-2.0,-2.0,-2.0,-2.0,-2.0,-2.0,-2.0
0.6672210754193891,0.6749120328343413,0.23634434214837385,0.2084493616830312,1.125,-1.375,-7.1875,-0.0419921875,1.125,0.03076171875,0.6665238164404341,0.6754962524309784,0.23578585191477996,0.20941787675889464,0.3125,-7.375,11.125,0.06591796875,1.01318359375,0.00439453125,21.0,13.0,8.0,10.0,9.0,8.0,13.0,17.0,24.0,15.0,8.0,10.0,8.0,8.0,13.0,17.0,-0.1260314139759844,-0.11571697864332516,-0.32035781692975407,-0.931716980996309,-15.8125,-20.25,-8.8125,0.1767578125,0.61962890625,0.8837890625,-0.12328394079724073,-0.11309165460261736,-0.3241391136505671,-0.9310989112884676,-17.0625,-23.4375,-13.4375,0.150390625,0.6630859375,0.79345703125,6.0,3.0,4.0,14.0,10.0,2.0,3.0,5.0,7.0,3.0,4.0,14.0,10.0,2.0,3.0,5.0,-2.0,-2.0,-2.0,-2.0,-2.0,-2.0,-2.0,-2.0,-2.0,-2.0,-2.0,-2.0,-2.0,-2.0,-2.0,-2.0,-2.0,-2.0,-2.0,-2.0,-2.0,-2.0,-2.0,-2.0,-2.0,-2.0,-2.0,-2.0,-2.0,-2.0,-2.0,-2.0,-2.0,-2.0,-2.0,-2.0
0.6684893438923,0.6736165448498377,0.23774342535249343,0.20698021960726706,-5.5625,-0.625,-7.125,-0.1435546875,1.0830078125,-0.01171875,0.6672210754193891,0.6749120328343413,0.23634434214837385,0.2084493616830312,1.125,-1.375,-7.1875,-0.0419921875,1.125,0.03076171875,20.0,13.0,7.0,10.0,10.0,8.0,14.0,17.0,21.0,13.0,8.0,10.0,9.0,8.0,13.0,17.0,-0.12816530635020512,-0.11717970866304468,-0.3170565554711027,-0.9323720881486113,-13.5625,-13.0,-7.9375,0.177734375,0.61962890625,0.8955078125,-0.1260314139759844,-0.11571697864332516,-0.32035781692975407,-0.931716980996309,-15.8125,-20.25,-8.8125,0.1767578125,0.61962890625,0.8837890625,6.0,3.0,4.0,15.0,10.0,2.0,3.0,6.0,6.0,3.0,4.0,14.0,10.0,2.0,3.0,5.0,-2.0,-2.0,-2.0,-2.0,-2.0,-2.0,-2.0,-2.0,-2.0,-2.0,-2.0,-2.0,-2.0,-2.0,-2.0,-2.0,-2.0,-2.0,-2.0,-2.0,-2.0,-2.0,-2.0,-2.0,-2.0,-2.0,-2.0,-2.0,-2.0,-2.0,-2.0,-2.0,-2.0,-2.0,-2.0,-2.0
0.6711399024634715,0.6709567810712578,0.2376305266294038,0.20717133505784652,-18.5,0.125,5.125,-0.1943359375,1.00732421875,0.021484375,0.6684893438923,0.6736165448498377,0.23774342535249343,0.20698021960726706,-5.5625,-0.625,-7.125,-0.1435546875,1.0830078125,-0.01171875,21.0,13.0,7.0,9.0,10.0,8.0,15.0,19.0,20.0,13.0,7.0,10.0,10.0,8.0,14.0,17.0,-0.13085570509224562,-0.11706214662636524,-0.31481050693367674,-0.932774132894025,-11.8125,-6.25,-12.5,0.1328125,0.6064453125,0.8251953125,-0.12816530635020512,-0.11717970866304468,-0.3170565554711027,-0.9323720881486113,-13.5625,-13.0,-7.9375,0.177734375,0.61962890625,0.8955078125,7.0,3.0,4.0,16.0,10.0,2.0,3.0,5.0,6.0,3.0,4.0,15.0,10.0,2.0,3.0,6.0,-2.0,-2.0,-2.0,-2.0,-2.0,-2.0,-2.0,-2.0,-2.0,-2.0,-2.0,-2.0,-2.0,-2.0,-2.0,-2.0,-2.0,-2.0,-2.0,-2.0,-2.0,-2.0,-2.0,-2.0,-2.0,-2.0,-2.0,-2.0,-2.0,-2.0,-2.0,-2.0,-2.0,-2.0,-2.0,-2.0
0.6752560050781244,0.6671990772402584,0.23450542994758694,0.20948012378451805,-33.4375,-4.1875,15.875,-0.10546875,0.91064453125,0.052734375,0.6711399024634715,0.6709567810712578,0.2376305266294038,0.20717133505784652,-18.5,0.125,5.125,-0.1943359375,1.00732421875,0.021484375,20.0,14.0,7.0,9.0,9.0,8.0,15.0,19.0,21.0,13.0,7.0,9.0,10.0,8.0,15.0,19.0,-0.1336596771798486,-0.11724211865867086,-0.312910120959399,-0.9329933721681944,-7.8125,-10.0625,-11.9375,0.08935546875,0.5546875,0.80615234375,-0.13085570509224562,-0.11706214662636524,-0.31481050693367674,-0.932774132894025,-11.8125,-6.25,-12.5,0.1328125,0.6064453125,0.8251953125,6.0,3.0,4.0,15.0,10.0,2.0,3.0,5.0,7.0,3.0,4.0,16.0,10.0,2.0,3.0,5.0,-2.0,-2.0,-2.0,-2.0,-2.0,-2.0,-2.0,-2.0,-2.0,-2.0,-2.0,-2.0,-2.0,-2.0,-2.0,-2.0,-2.0,-2.0,-2.0,-2.0,-2.0,-2.0,-2.0,-2.0,-2.0,-2.0,-2.0,-2.0,-2.0,-2.0,-2.0,-2.0,-2.0,-2.0,-2.0,-2.0
0.6791666173719569,0.663418887769911,0.23200434192781597,0.21161774624144644,-28.3125,-1.8125,8.0,-0.0341796875,0.958984375,0.11181640625,0.6752560050781244,0.6671990772402584,0.23450542994758694,0.20948012378451805,-33.4375,-4.1875,15.875,-0.10546875,0.91064453125,0.052734375,20.0,16.0,8.0,9.0,8.0,7.0,14.0,18.0,20.0,14.0,7.0,9.0,9.0,8.0,15.0,19.0,-0.13561496368810663,-0.11858680218091411,-0.3118777967804792,-0.9328869126789873,0.5625,-13.5625,-6.9375,0.11376953125,0.572265625,0.87109375,-0.1336596771798486,-0.11724211865867086,-0.312910120959399,-0.9329933721681944,-7.8125,-10.0625,-11.9375,0.08935546875,0.5546875,0.80615234375,6.0,3.0,4.0,15.0,10.0,1.0,3.0,5.0,6.0,3.0,4.0,15.0,10.0,2.0,3.0,5.0,-2.0,-2.0,-2.0,-2.0,-2.0,-2.0,-2.0,-2.0,-2.0,-2.0,-2.0,-2.0,-2.0,-2.0,-2.0,-2.0,-2.0,-2.0,-2.0,-2.0,-2.0,-2.0,-2.0,-2.0,-2.0,-2.0,-2.0,-2.0,-2.0,-2.0,-2.0,-2.0,-2.0,-2.0,-2.0,-2.0
0.6822253325364467,0.6597021914694386,0.2332884692631564,0.21198609464964474,-18.625,6.75,-7.0625,-0.10693359375,0.97021484375,0.1103515625,0.6791666173719569,0.663418887769911,0.23200434192781597,0.21161774624144644,-28.3125,-1.8125,8.0,-0.0341796875,0.958984375,0.11181640625,18.0,17.0,8.0,9.0,7.0,7.0,13.0,18.0,20.0,16.0,8.0,9.0,8.0,7.0,14.0,18.0,-0.13653108154188853,-0.11925870958106849,-0.31157405957592355,-0.9327691190007522,8.25,-7.0,-4.4375,0.1484375,0.59228515625,0.9794921875,-0.13561496368810663,-0.11858680218091411,-0.3118777967804792,-0.9328869126789873,0.5625,-13.5625,-6.9375,0.11376953125,0.572265625,0.87109375,6.0,3.0,4.0,16.0,11.0,1.0,3.0,5.0,6.0,3.0,4.0,15.0,10.0,1.0,3.0,5.0,-2.0,-2.0,-2.0,-2.0,-2.0,-2.0,-2.0,-2.0,-2.0,-2.0,-2.0,-2.0,-2.0,-2.0,-2.0,-2.0,-2.0,-2.0,-2.0,-2.0,-2.0,-2.0,-2.0,-2.0,-2.0,-2.0,-2.0,-2.0,-2.0,-2.0,-2.0,-2.0,-2.0,-2.0,-2.0,-2.0
0.6833079484497209,0.6578555666271632,0.23615171527931847,0.21106555477794864,-5.25,8.25,-3.8125,-0.251953125,0.9677734375,0.04345703125,0.6822253325364467,0.6597021914694386,0.2332884692631564,0.21198609464964474,-18.625,6.75,-7.0625,-0.10693359375,0.97021484375,0.1103515625,17.0,16.0,8.0,9.0,7.0,7.0,14.0,19.0,18.0,17.0,8.0,9.0,7.0,7.0,13.0,18.0,-0.1367732504627874,-0.11797532045719235,-0.31181371557982185,-0.9328167604075157,11.5,4.9375,-4.4375,0.14208984375,0.56494140625,0.9755859375,-0.13653108154188853,-0.11925870958106849,-0.31157405957592355,-0.9327691190007522,8.25,-7.0,-4.4375,0.1484375,0.59228515625,0.9794921875,6.0,3.0,4.0,17.0,11.0,1.0,3.0,5.0,6.0,3.0,4.0,16.0,11.0,1.0,3.0,5.0,-2.0,-2.0,-2.0,-2.0,-2.0,-2.0,-2.0,-2.0,-2.0,-2.0,-2.0,-2.0,-2.0,-2.0,-2.0,-2.0,-2.0,-2.0,-2.0,-2.0,-2.0,-2.0,-2.0,-2.0,-2.0,-2.0,-2.0,-2.0,-2.0,-2.0,-2.0,-2.0,-2.0,-2.0,-2.0,-2.0
0.6837007966959612,0.6576370309438698,0.2366492267467406,0.20991402909002863,-0.5625,-3.0,12.6875,-0.328125,1.0078125,0.0166015625,0.6833079484497209,0.6578555666271632,0.23615171527931847,0.21106555477794864,-5.25,8.25,-3.8125,-0.251953125,0.9677734375,0.04345703125,16.0,16.0,8.0,9.0,7.0,8.0,15.0,20.0,17.0,16.0,8.0,9.0,7.0,7.0,14.0,19.0,-0.1368347253785521,-0.11590059923901445,-0.31364569746671683,-0.9324535835564312,14.5,8.4375,-3.5625,0.0771484375,0.583984375,0.87060546875,-0.1367732504627874,-0.11797532045719235,-0.31181371557982185,-0.9328167604075157,11.5,4.9375,-4.4375,0.14208984375,0.56494140625,0.9755859375,6.0,3.0,4.0,16.0,11.0,1.0,2.0,5.0,6.0,3.0,4.0,17.0,11.0,1.0,3.0,5.0,-2.0,-2.0,-2.0,-2.0,-2.0,-2.0,-2.0,-2.0,-2.0,-2.0,-2.0,-2.0,-2.0,-2.0,-2.0,-2.0,-2.0,-2.0,-2.0,-2.0,-2.0,-2.0,-2.0,-2.0,-2.0,-2.0,-2.0,-2.0,-2.0,-2.0,-2.0,-2.0,-2.0,-2.0,-2.0,-2.0
0.6839981311406891,0.658361934899471,0.2346322341696242,0.20893499936592708,2.4375,-13.125,15.625,-0.2138671875,1.0849609375,0.05224609375,0.6837007966959612,0.6576370309438698,0.2366492267467406,0.20991402909002863,-0.5625,-3.0,12.6875,-0.328125,1.0078125,0.0166015625,17.0,16.0,8.0,9.0,7.0,8.0,16.0,22.0,16.0,16.0,8.0,9.0,7.0,8.0,15.0,20.0,-0.13720234437283524,-0.11376564497818722,-0.31676164025578957,-0.9316088009372585,19.5625,6.875,-4.3125,0.0361328125,0.640625,0.87353515625,-0.1368347253785521,-0.11590059923901445,-0.31364569746671683,-0.9324535835564312,14.5,8.4375,-3.5625,0.0771484375,0.583984375,0.87060546875,6.0,3.0,4.0,17.0,11.0,1.0,2.0,4.0,6.0,3.0,4.0,16.0,11.0,1.0,2.0,5.0,-2.0,-2.0,-2.0,-2.0,-2.0,-2.0,-2.0,-2.0,-2.0,-2.0,-2.0,-2.0,-2.0,-2.0,-2.0,-2.0,-2.0,-2.0,-2.0,-2.0,-2.0,-2.0,-2.0,-2.0,-2.0,-2.0,-2.0,-2.0,-2.0,-2.0,-2.0,-2.0,-2.0,-2.0,-2.0,-2.0
0.6857608529313303,0.6570730379889427,0.23249337684160543,0.20960416279182806,-8.25,-6.4375,11.125,-0.10595703125,1.06982421875,0.12939453125,0.6839981311406891,0.658361934899471,0.2346322341696242,0.20893499936592708,2.4375,-13.125,15.625,-0.2138671875,1.0849609375,0.05224609375,17.0,18.0,10.0,9.0,7.0,7.0,16.0,22.0,17.0,16.0,8.0,9.0,7.0,8.0,16.0,22.0,-0.13824002631132434,-0.11175165040884542,-0.3200577033009205,-0.9305720446661202,20.125,4.8125,-8.0,0.0341796875,0.69384765625,0.9208984375,-0.13720234437283524,-0.11376564497818722,-0.31676164025578957,-0.9316088009372585,19.5625,6.875,-4.3125,0.0361328125,0.640625,0.87353515625,5.0,3.0,4.0,18.0,12.0,1.0,1.0,3.0,6.0,3.0,4.0,17.0,11.0,1.0,2.0,4.0,-2.0,-2.0,-2.0,-2.0,-2.0,-2.0,-2.0,-2.0,-2.0,-2.0,-2.0,-2.0,-2.0,-2.0,-2.0,-2.0,-2.0,-2.0,-2.0,-2.0,-2.0,-2.0,-2.0,-2.0,-2.0,-2.0,-2.0,-2.0,-2.0,-2.0,-2.0,-2.0,-2.0,-2.0,-2.0,-2.0
0.6872753473761457,0.6550478710515804,0.23163498608281285,0.21192007158880796,-13.0625,5.75,11.6875,-0.10107421875,1.08984375,0.1044921875,0.6857608529313303,0.6570730379889427,0.23249337684160543,0.20960416279182806,-8.25,-6.4375,11.125,-0.10595703125,1.06982421875,0.12939453125,18.0,18.0,10.0,10.0,7.0,7.0,15.0,21.0,17.0,18.0,10.0,9.0,7.0,7.0,16.0,22.0,-0.14031527928413975,-0.10882215874885653,-0.3214007223620182,-0.9301456530188298,8.875,8.8125,-15.4375,0.06689453125,0.6689453125,0.9169921875,-0.13824002631132434,-0.11175165040884542,-0.3200577033009205,-0.9305720446661202,20.125,4.8125,-8.0,0.0341796875,0.69384765625,0.9208984375,5.0,3.0,4.0,17.0,10.0,1.0,1.0,4.0,5.0,3.0,4.0,18.0,12.0,1.0,1.0,3.0,-2.0,-2.0,-2.0,-2.0,-2.0,-2.0,-2.0,-2.0,-2.0,-2.0,-2.0,-2.0,-2.0,-2.0,-2.0,-2.0,-2.0,-2.0,-2.0,-2.0,-2.0,-2.0,-2.0,-2.0,-2.0,-2.0,-2.0,-2.0,-2.0,-2.0,-2.0,-2.0,-2.0,-2.0,-2.0,-2.0
0.687857376524755,0.6533698960263535,0.23176807690695667,0.21504317485994426,-8.0,13.3125,15.75,-0.1376953125,1.0400390625,0.10888671875,0.6872753473761457,0.6550478710515804,0.23163498608281285,0.21192007158880796,-13.0625,5.75,11.6875,-0.10107421875,1.08984375,0.1044921875,19.0,19.0,14.0,11.0,7.0,6.0,14.0,24.0,18.0,18.0,10.0,10.0,7.0,7.0,15.0,21.0,-0.14263163678571997,-0.10466977196726988,-0.32163830802770393,-0.930187751926041,2.4375,14.875,-18.3125,0.0556640625,0.595703125,0.87353515625,-0.14031527928413975,-0.10882215874885653,-0.3214007223620182,-0.9301456530188298,8.875,8.8125,-15.4375,0.06689453125,0.6689453125,0.9169921875,5.0,3.0,5.0,19.0,11.0,2.0,2.0,3.0,5.0,3.0,4.0,17.0,10.0,1.0,1.0,4.0,-2.0,-2.0,-2.0,-2.0,-2.0,-2.0,-2.0,-2.0,-2.0,-2.0,-2.0,-2.0,-2.0,-2.0,-2.0,-2.0,-2.0,-2.0,-2.0,-2.0,-2.0,-2.0,-2.0,-2.0,-2.0,-2.0,-2.0,-2.0,-2.0,-2.0,-2.0,-2.0,-2.0,-2.0,-2.0,-2.0
0.6871559142477154,0.6530361633093185,0.2337111383597888,0.21619348447907336,4.1875,13.0625,7.0625,-0.17041015625,0.96875,0.06396484375,0.687857376524755,0.6533698960263535,0.23176807690695667,0.21504317485994426,-8.0,13.3125,15.75,-0.1376953125,1.0400390625,0.10888671875,18.0,19.0,16.0,12.0,7.0,6.0,15.0,24.0,19.0,19.0,14.0,11.0,7.0,6.0,14.0,24.0,-0.14415800171932497,-0.10088618833278754,-0.3212733789375642,-0.9304965682526792,0.5625,13.3125,-12.3125,0.03271484375,0.56201171875,0.85107421875,-0.14263163678571997,-0.10466977196726988,-0.32163830802770393,-0.930187751926041,2.4375,14.875,-18.3125,0.0556640625,0.595703125,0.87353515625,5.0,3.0,5.0,19.0,11.0,2.0,2.0,3.0,5.0,3.0,5.0,19.0,11.0,2.0,2.0,3.0,-2.0,-2.0,-2.0,-2.0,-2.0,-2.0,-2.0,-2.0,-2.0,-2.0,-2.0,-2.0,-2.0,-2.0,-2.0,-2.0,-2.0,-2.0,-2.0,-2.0,-2.0,-2.0,-2.0,-2.0,-2.0,-2.0,-2.0,-2.0,-2.0,-2.0,-2.0,-2.0,-2.0,-2.0,-2.0,-2.0
0.686573778455077,0.6527578224394197,0.23756624695476172,0.214676385030806,9.625,10.3125,-11.3125,-0.17236328125,1.07275390625,0.0634765625,0.6871559142477154,0.6530361633093185,0.2337111383597888,0.21619348447907336,4.1875,13.0625,7.0625,-0.17041015625,0.96875,0.06396484375,18.0,19.0,17.0,13.0,7.0,7.0,16.0,28.0,18.0,19.0,16.0,12.0,7.0,6.0,15.0,24.0,-0.1449527652811707,-0.09826271667481468,-0.3217035898092846,-0.9305052039902015,4.0625,9.4375,-7.125,0.03955078125,0.626953125,0.873046875,-0.14415800171932497,-0.10088618833278754,-0.3212733789375642,-0.9304965682526792,0.5625,13.3125,-12.3125,0.03271484375,0.56201171875,0.85107421875,5.0,3.0,5.0,18.0,11.0,2.0,2.0,3.0,5.0,3.0,5.0,19.0,11.0,2.0,2.0,3.0,-2.0,-2.0,-2.0,-2.0,-2.0,-2.0,-2.0,-2.0,-2.0,-2.0,-2.0,-2.0,-2.0,-2.0,-2.0,-2.0,-2.0,-2.0,-2.0,-2.0,-2.0,-2.0,-2.0,-2.0,-2.0,-2.0,-2.0,-2.0,-2.0,-2.0,-2.0,-2.0,-2.0,-2.0,-2.0,-2.0
0.6877854368488538,0.6507348724037656,0.2429955470443102,0.21082808829214958,-1.3125,7.375,-31.6875,-0.1826171875,1.13818359375,0.02978515625,0.686573778455077,0.6527578224394197,0.23756624695476172,0.214676385030806,9.625,10.3125,-11.3125,-0.17236328125,1.07275390625,0.0634765625,19.0,21.0,18.0,13.0,7.0,7.0,16.0,28.0,18.0,19.0,17.0,13.0,7.0,7.0,16.0,28.0,-0.14568035873451962,-0.09478072773971888,-0.32144886864462285,-0.9308407337322552,-0.8125,15.0625,-8.8125,0.060546875,0.67041015625,0.931640625,-0.1449527652811707,-0.09826271667481468,-0.3217035898092846,-0.9305052039902015,4.0625,9.4375,-7.125,0.03955078125,0.626953125,0.873046875,6.0,4.0,5.0,18.0,11.0,2.0,2.0,4.0,5.0,3.0,5.0,18.0,11.0,2.0,2.0,3.0,-2.0,-2.0,-2.0,-2.0,-2.0,-2.0,-2.0,-2.0,-2.0,-2.0,-2.0,-2.0,-2.0,-2.0,-2.0,-2.0,-2.0,-2.0,-2.0,-2.0,-2.0,-2.0,-2.0,-2.0,-2.0,-2.0,-2.0,-2.0,-2.0,-2.0,-2.0,-2.0,-2.0,-2.0,-2.0,-2.0
0.6884509182662036,0.6495695249746377,0.24891416301884728,0.20527178279362027,6.75,2.875,-35.625,-0.240234375,1.12646484375,0.02294921875,0.6877854368488538,0.6507348724037656,0.2429955470443102,0.21082808829214958,-1.3125,7.375,-31.6875,-0.1826171875,1.13818359375,0.02978515625,18.0,20.0,20.0,14.0,7.0,7.0,15.0,27.0,19.0,21.0,18.0,13.0,7.0,7.0,16.0,28.0,-0.14684659009306242,-0.08935303736335967,-0.3196934492549713,-0.9317983752912651,-14.875,22.8125,-12.0625,0.033203125,0.70703125,0.92041015625,-0.14568035873451962,-0.09478072773971888,-0.32144886864462285,-0.9308407337322552,-0.8125,15.0625,-8.8125,0.060546875,0.67041015625,0.931640625,7.0,4.0,6.0,21.0,11.0,2.0,2.0,5.0,6.0,4.0,5.0,18.0,11.0,2.0,2.0,4.0,-2.0,-2.0,-2.0,-2.0,-2.0,-2.0,-2.0,-2.0,-2.0,-2.0,-2.0,-2.0,-2.0,-2.0,-2.0,-2.0,-2.0,-2.0,-2.0,-2.0,-2.0,-2.0,-2.0,-2.0,-2.0,-2.0,-2.0,-2.0,-2.0,-2.0,-2.0,-2.0,-2.0,-2.0,-2.0,-2.0
0.6919774111700803,0.6457113021759089,0.25312078363961565,0.200384743836233,-11.4375,-2.1875,-36.0625,-0.22119140625,1.09375,0.1103515625,0.6884509182662036,0.6495695249746377,0.24891416301884728,0.20527178279362027,6.75,2.875,-35.625,-0.240234375,1.12646484375,0.02294921875,19.0,20.0,20.0,14.0,7.0,8.0,18.0,30.0,18.0,20.0,20.0,14.0,7.0,7.0,15.0,27.0,-0.1486121114698558,-0.08202656173120583,-0.31681538835319156,-0.9331742030283758,-24.875,29.25,-16.5625,-0.0244140625,0.705078125,0.90087890625,-0.14684659009306242,-0.08935303736335967,-0.3196934492549713,-0.9317983752912651,-14.875,22.8125,-12.0625,0.033203125,0.70703125,0.92041015625,7.0,4.0,7.0,23.0,12.0,2.0,2.0,5.0,7.0,4.0,6.0,21.0,11.0,2.0,2.0,5.0,-2.0,-2.0,-2.0,-2.0,-2.0,-2.0,-2.0,-2.0,-2.0,-2.0,-2.0,-2.0,-2.0,-2.0,-2.0,-2.0,-2.0,-2.0,-2.0,-2.0,-2.0,-2.0,-2.0,-2.0,-2.0,-2.0,-2.0,-2.0,-2.0,-2.0,-2.0,-2.0,-2.0,-2.0,-2.0,-2.0
0.6953584424755933,0.6414608384810402,0.25758537809401366,0.1966072281613313,-12.0,4.3125,-38.125,-0.158203125,1.01953125,0.14501953125,0.6919774111700803,0.6457113021759089,0.25312078363961565,0.200384743836233,-11.4375,-2.1875,-36.0625,-0.22119140625,1.09375,0.1103515625,19.0,19.0,20.0,13.0,8.0,8.0,20.0,32.0,19.0,20.0,20.0,14.0,7.0,8.0,18.0,30.0,-0.1509951162632867,-0.07348347614429959,-0.31157238016333005,-0.9352664355774476,-34.25,32.4375,-20.0625,-0.04638671875,0.59423828125,0.9267578125,-0.1486121114698558,-0.08202656173120583,-0.31681538835319156,-0.9331742030283758,-24.875,29.25,-16.5625,-0.0244140625,0.705078125,0.90087890625,7.0,5.0,7.0,23.0,11.0,2.0,3.0,5.0,7.0,4.0,7.0,23.0,12.0,2.0,2.0,5.0,-2.0,-2.0,-2.0,-2.0,-2.0,-2.0,-2.0,-2.0,-2.0,-2.0,-2.0,-2.0,-2.0,-2.0,-2.0,-2.0,-2.0,-2.0,-2.0,-2.0,-2.0,-2.0,-2.0,-2.0,-2.0,-2.0,-2.0,-2.0,-2.0,-2.0,-2.0,-2.0,-2.0,-2.0,-2.0,-2.0
0.6970665528666954,0.6376755059368097,0.2643603538060996,0.19386019018429287,-0.5,19.3125,-38.5625,-0.18359375,0.95556640625,0.1748046875,0.6953584424755933,0.6414608384810402,0.25758537809401366,0.1966072281613313,-12.0,4.3125,-38.125,-0.158203125,1.01953125,0.14501953125,19.0,19.0,22.0,14.0,10.0,10.0,21.0,33.0,19.0,19.0,20.0,13.0,8.0,8.0,20.0,32.0,-0.15257829266673437,-0.06518144662722891,-0.3064382429918693,-0.9373189675102825,-26.375,35.3125,-18.0,-0.01123046875,0.4833984375,0.95361328125,-0.1509951162632867,-0.07348347614429959,-0.31157238016333005,-0.9352664355774476,-34.25,32.4375,-20.0625,-0.04638671875,0.59423828125,0.9267578125,7.0,5.0,7.0,22.0,11.0,2.0,3.0,5.0,7.0,5.0,7.0,23.0,11.0,2.0,3.0,5.0,-2.0,-2.0,-2.0,-2.0,-2.0,-2.0,-2.0,-2.0,-2.0,-2.0,-2.0,-2.0,-2.0,-2.0,-2.0,-2.0,-2.0,-2.0,-2.0,-2.0,-2.0,-2.0,-2.0,-2.0,-2.0,-2.0,-2.0,-2.0,-2.0,-2.0,-2.0,-2.0,-2.0,-2.0,-2.0,-2.0
0.6982399875575083,0.6337814311399256,0.2735215826772615,0.18965221097483853,0.3125,23.5625,-45.3125,-0.3193359375,1.0,0.099609375,0.6970665528666954,0.6376755059368097,0.2643603538060996,0.19386019018429287,-0.5,19.3125,-38.5625,-0.18359375,0.95556640625,0.1748046875,21.0,19.0,26.0,16.0,10.0,11.0,23.0,35.0,19.0,19.0,22.0,14.0,10.0,10.0,21.0,33.0,-0.1519077782529738,-0.057491814830976824,-0.3043648413610206,-0.9386057540186757,-5.25,41.9375,-9.1875,0.03271484375,0.45458984375,0.9775390625,-0.15257829266673437,-0.06518144662722891,-0.3064382429918693,-0.9373189675102825,-26.375,35.3125,-18.0,-0.01123046875,0.4833984375,0.95361328125,7.0,5.0,7.0,23.0,11.0,2.0,3.0,6.0,7.0,5.0,7.0,22.0,11.0,2.0,3.0,5.0,-2.0,-2.0,-2.0,-2.0,-2.0,-2.0,-2.0,-2.0,-2.0,-2.0,-2.0,-2.0,-2.0,-2.0,-2.0,-2.0,-2.0,-2.0,-2.0,-2.0,-2.0,-2.0,-2.0,-2.0,-2.0,-2.0,-2.0,-2.0,-2.0,-2.0,-2.0,-2.0,-2.0,-2.0,-2.0,-2.0
0.6996286051214303,0.6303493810058464,0.28273248114835675,0.18232338540374388,3.9375,11.3125,-55.4375,-0.38037109375,1.03076171875,0.0673828125,0.6982399875575083,0.6337814311399256,0.2735215826772615,0.18965221097483853,0.3125,23.5625,-45.3125,-0.3193359375,1.0,0.099609375,23.0,21.0,27.0,16.0,11.0,11.0,23.0,36.0,21.0,19.0,26.0,16.0,10.0,11.0,23.0,35.0,-0.14983307271769672,-0.04919163202055542,-0.3057082937853128,-0.9389742662980708,11.375,49.3125,-3.25,-0.0048828125,0.5166015625,0.9765625,-0.1519077782529738,-0.057491814830976824,-0.3043648413610206,-0.9386057540186757,-5.25,41.9375,-9.1875,0.03271484375,0.45458984375,0.9775390625,7.0,5.0,7.0,22.0,11.0,2.0,3.0,5.0,7.0,5.0,7.0,23.0,11.0,2.0,3.0,6.0,-2.0,-2.0,-2.0,-2.0,-2.0,-2.0,-2.0,-2.0,-2.0,-2.0,-2.0,-2.0,-2.0,-2.0,-2.0,-2.0,-2.0,-2.0,-2.0,-2.0,-2.0,-2.0,-2.0,-2.0,-2.0,-2.0,-2.0,-2.0,-2.0,-2.0,-2.0,-2.0,-2.0,-2.0,-2.0,-2.0
0.7019900662415349,0.626425880344046,0.29072069259268163,0.17401736186893454,-1.625,1.8125,-59.0625,-0.36328125,0.9873046875,0.05517578125,0.6996286051214303,0.6303493810058464,0.28273248114835675,0.18232338540374388,3.9375,11.3125,-55.4375,-0.38037109375,1.03076171875,0.0673828125,24.0,21.0,27.0,16.0,11.0,12.0,24.0,38.0,23.0,21.0,27.0,16.0,11.0,11.0,23.0,36.0,-0.14721322730452008,-0.03954982226091584,-0.3082810991356264,-0.9390031103151084,10.8125,54.6875,-0.5625,-0.08544921875,0.59033203125,0.91845703125,-0.14983307271769672,-0.04919163202055542,-0.3057082937853128,-0.9389742662980708,11.375,49.3125,-3.25,-0.0048828125,0.5166015625,0.9765625,7.0,5.0,7.0,22.0,11.0,2.0,3.0,6.0,7.0,5.0,7.0,22.0,11.0,2.0,3.0,5.0,-2.0,-2.0,-2.0,-2.0,-2.0,-2.0,-2.0,-2.0,-2.0,-2.0,-2.0,-2.0,-2.0,-2.0,-2.0,-2.0,-2.0,-2.0,-2.0,-2.0,-2.0,-2.0,-2.0,-2.0,-2.0,-2.0,-2.0,-2.0,-2.0,-2.0,-2.0,-2.0,-2.0,-2.0,-2.0,-2.0
0.706099892836428,0.6204620859856752,0.29793167158839945,0.1663924885781555,-17.9375,0.125,-58.4375,-0.388671875,0.951171875,0.06640625,0.7019900662415349,0.626425880344046,0.29072069259268163,0.17401736186893454,-1.625,1.8125,-59.0625,-0.36328125,0.9873046875,0.05517578125,24.0,21.0,27.0,16.0,11.0,12.0,24.0,38.0,24.0,21.0,27.0,16.0,11.0,12.0,24.0,38.0,-0.1444047793258068,-0.028197382945275885,-0.3088284798768311,-0.9396686316568561,-2.1875,60.0,0.375,-0.1572265625,0.578125,0.91015625,-0.14721322730452008,-0.03954982226091584,-0.3082810991356264,-0.9390031103151084,10.8125,54.6875,-0.5625,-0.08544921875,0.59033203125,0.91845703125,8.0,6.0,7.0,22.0,10.0,2.0,3.0,5.0,7.0,5.0,7.0,22.0,11.0,2.0,3.0,6.0,-2.0,-2.0,-2.0,-2.0,-2.0,-2.0,-2.0,-2.0,-2.0,-2.0,-2.0,-2.0,-2.0,-2.0,-2.0,-2.0,-2.0,-2.0,-2.0,-2.0,-2.0,-2.0,-2.0,-2.0,-2.0,-2.0,-2.0,-2.0,-2.0,-2.0,-2.0,-2.0,-2.0,-2.0,-2.0,-2.0
0.7095693127858953,0.615631491506111,0.3038482614234999,0.15869937318222174,-11.5625,-5.25,-47.1875,-0.447265625,0.84716796875,0.072265625,0.706099892836428,0.6204620859856752,0.29793167158839945,0.1663924885781555,-17.9375,0.125,-58.4375,-0.388671875,0.951171875,0.06640625,22.0,20.0,25.0,15.0,11.0,13.0,24.0,39.0,24.0,21.0,27.0,16.0,11.0,12.0,24.0,38.0,-0.1414705824215427,-0.01647845438042128,-0.3077809090387575,-0.9407366511844949,-5.75,62.9375,-0.0625,-0.1435546875,0.46533203125,0.91357421875,-0.1444047793258068,-0.028197382945275885,-0.3088284798768311,-0.9396686316568561,-2.1875,60.0,0.375,-0.1572265625,0.578125,0.91015625,9.0,6.0,7.0,20.0,10.0,2.0,3.0,6.0,8.0,6.0,7.0,22.0,10.0,2.0,3.0,5.0,-2.0,-2.0,-2.0,-2.0,-2.0,-2.0,-2.0,-2.0,-2.0,-2.0,-2.0,-2.0,-2.0,-2.0,-2.0,-2.0,-2.0,-2.0,-2.0,-2.0,-2.0,-2.0,-2.0,-2.0,-2.0,-2.0,-2.0,-2.0,-2.0,-2.0,-2.0,-2.0,-2.0,-2.0,-2.0,-2.0
0.7127547693816998,0.612101124206533,0.3073323853589842,0.1511941049720365,-3.0625,-13.75,-36.0625,-0.4404296875,0.79248046875,0.1435546875,0.7095693127858953,0.615631491506111,0.3038482614234999,0.15869937318222174,-11.5625,-5.25,-47.1875,-0.447265625,0.84716796875,0.072265625,22.0,17.0,23.0,13.0,11.0,12.0,23.0,37.0,22.0,20.0,25.0,15.0,11.0,13.0,24.0,39.0,-0.13854281128576593,-0.005553918866521894,-0.3076016602996741,-0.9413587318377329,-0.9375,63.25,-1.3125,-0.09130859375,0.4150390625,0.82421875,-0.1414705824215427,-0.01647845438042128,-0.3077809090387575,-0.9407366511844949,-5.75,62.9375,-0.0625,-0.1435546875,0.46533203125,0.91357421875,11.0,7.0,6.0,19.0,9.0,1.0,3.0,6.0,9.0,6.0,7.0,20.0,10.0,2.0,3.0,6.0,-2.0,-2.0,-2.0,-2.0,-2.0,-2.0,-2.0,-2.0,-2.0,-2.0,-2.0,-2.0,-2.0,-2.0,-2.0,-2.0,-2.0,-2.0,-2.0,-2.0,-2.0,-2.0,-2.0,-2.0,-2.0,-2.0,-2.0,-2.0,-2.0,-2.0,-2.0,-2.0,-2.0,-2.0,-2.0,-2.0
0.715925052255252,0.6091680468503211,0.309528172903605,0.1433803348748902,-6.75,-22.0625,-38.5625,-0.3369140625,0.73291015625,0.0625,0.7127547693816998,0.612101124206533,0.3073323853589842,0.1511941049720365,-3.0625,-13.75,-36.0625,-0.4404296875,0.79248046875,0.1435546875,22.0,18.0,22.0,13.0,11.0,12.0,23.0,36.0,22.0,17.0,23.0,13.0,11.0,12.0,23.0,37.0,-0.13475758879431216,0.0050656158831195236,-0.30894153735362684,-0.9414721760602622,0.0,64.0,2.3125,-0.10302734375,0.52099609375,0.75146484375,-0.13854281128576593,-0.005553918866521894,-0.3076016602996741,-0.9413587318377329,-0.9375,63.25,-1.3125,-0.09130859375,0.4150390625,0.82421875,11.0,7.0,6.0,17.0,8.0,1.0,3.0,7.0,11.0,7.0,6.0,19.0,9.0,1.0,3.0,6.0,-2.0,-2.0,-2.0,-2.0,-2.0,-2.0,-2.0,-2.0,-2.0,-2.0,-2.0,-2.0,-2.0,-2.0,-2.0,-2.0,-2.0,-2.0,-2.0,-2.0,-2.0,-2.0,-2.0,-2.0,-2.0,-2.0,-2.0,-2.0,-2.0,-2.0,-2.0,-2.0,-2.0,-2.0,-2.0,-2.0
0.7180536642198904,0.6075744792285608,0.31068455889826946,0.13684769765224364,-2.4375,-21.0,-31.375,-0.2685546875,0.69775390625,0.03759765625,0.715925052255252,0.6091680468503211,0.309528172903605,0.1433803348748902,-6.75,-22.0625,-38.5625,-0.3369140625,0.73291015625,0.0625,22.0,18.0,22.0,12.0,11.0,14.0,22.0,35.0,22.0,18.0,22.0,13.0,11.0,12.0,23.0,36.0,-0.13055170892309462,0.015258498004101756,-0.31066301936351176,-0.941388292861062,0.875,58.875,7.875,-0.18798828125,0.568359375,0.7822265625,-0.13475758879431216,0.0050656158831195236,-0.30894153735362684,-0.9414721760602622,0.0,64.0,2.3125,-0.10302734375,0.52099609375,0.75146484375,11.0,7.0,5.0,16.0,7.0,2.0,3.0,7.0,11.0,7.0,6.0,17.0,8.0,1.0,3.0,7.0,-2.0,-2.0,-2.0,-2.0,-2.0,-2.0,-2.0,-2.0,-2.0,-2.0,-2.0,-2.0,-2.0,-2.0,-2.0,-2.0,-2.0,-2.0,-2.0,-2.0,-2.0,-2.0,-2.0,-2.0,-2.0,-2.0,-2.0,-2.0,-2.0,-2.0,-2.0,-2.0,-2.0,-2.0,-2.0,-2.0
0.718728054300718,0.6080652974049896,0.31038065020120176,0.1317210310981698,8.9375,-20.9375,-15.375,-0.267578125,0.6962890625,0.05615234375,0.7180536642198904,0.6075744792285608,0.31068455889826946,0.13684769765224364,-2.4375,-21.0,-31.375,-0.2685546875,0.69775390625,0.03759765625,23.0,17.0,21.0,13.0,13.0,16.0,24.0,37.0,22.0,18.0,22.0,12.0,11.0,14.0,22.0,35.0,-0.12694969303358486,0.023009631862337256,-0.3115150159824121,-0.9414418341553108,-1.5,45.0625,8.5,-0.18310546875,0.55029296875,0.7646484375,-0.13055170892309462,0.015258498004101756,-0.31066301936351176,-0.941388292861062,0.875,58.875,7.875,-0.18798828125,0.568359375,0.7822265625,11.0,7.0,5.0,13.0,6.0,1.0,3.0,7.0,11.0,7.0,5.0,16.0,7.0,2.0,3.0,7.0,-2.0,-2.0,-2.0,-2.0,-2.0,-2.0,-2.0,-2.0,-2.0,-2.0,-2.0,-2.0,-2.0,-2.0,-2.0,-2.0,-2.0,-2.0,-2.0,-2.0,-2.0,-2.0,-2.0,-2.0,-2.0,-2.0,-2.0,-2.0,-2.0,-2.0,-2.0,-2.0,-2.0,-2.0,-2.0,-2.0
0.7185647166155306,0.6097301184397328,0.3090463099069344,0.12800120716469313,12.1875,-19.75,-5.3125,-0.25341796875,0.7138671875,0.03759765625,0.718728054300718,0.6080652974049896,0.31038065020120176,0.1317210310981698,8.9375,-20.9375,-15.375,-0.267578125,0.6962890625,0.05615234375,21.0,16.0,21.0,13.0,13.0,15.0,23.0,36.0,23.0,17.0,21.0,13.0,13.0,16.0,24.0,37.0,-0.12408212934279798,0.029113219722830614,-0.31102928240575434,-0.941815709733751,-5.125,37.0,5.5625,-0.1337890625,0.48876953125,0.7490234375,-0.12694969303358486,0.023009631862337256,-0.3115150159824121,-0.9414418341553108,-1.5,45.0625,8.5,-0.18310546875,0.55029296875,0.7646484375,11.0,7.0,4.0,11.0,6.0,1.0,3.0,8.0,11.0,7.0,5.0,13.0,6.0,1.0,3.0,7.0,-2.0,-2.0,-2.0,-2.0,-2.0,-2.0,-2.0,-2.0,-2.0,-2.0,-2.0,-2.0,-2.0,-2.0,-2.0,-2.0,-2.0,-2.0,-2.0,-2.0,-2.0,-2.0,-2.0,-2.0,-2.0,-2.0,-2.0,-2.0,-2.0,-2.0,-2.0,-2.0,-2.0,-2.0,-2.0,-2.0
0.7172370987091394,0.6130482018070459,0.3075006810736656,0.12323221021987513,22.125,-24.75,-3.0,-0.28125,0.71142578125,-0.01025390625,0.7185647166155306,0.6097301184397328,0.3090463099069344,0.12800120716469313,12.1875,-19.75,-5.3125,-0.25341796875,0.7138671875,0.03759765625,22.0,16.0,22.0,13.0,12.0,15.0,22.0,35.0,21.0,16.0,21.0,13.0,13.0,15.0,23.0,36.0,-0.1205354692753568,0.0332006558409084,-0.3123546996208993,-0.9417024257816483,5.1875,34.3125,8.75,-0.03759765625,0.5068359375,0.73828125,-0.12408212934279798,0.029113219722830614,-0.31102928240575434,-0.941815709733751,-5.125,37.0,5.5625,-0.1337890625,0.48876953125,0.7490234375,12.0,7.0,4.0,9.0,5.0,1.0,3.0,8.0,11.0,7.0,4.0,11.0,6.0,1.0,3.0,8.0,-2.0,-2.0,-2.0,-2.0,-2.0,-2.0,-2.0,-2.0,-2.0,-2.0,-2.0,-2.0,-2.0,-2.0,-2.0,-2.0,-2.0,-2.0,-2.0,-2.0,-2.0,-2.0,-2.0,-2.0,-2.0,-2.0,-2.0,-2.0,-2.0,-2.0,-2.0,-2.0,-2.0,-2.0,-2.0,-2.0
0.7159821458169464,0.6179542407715912,0.30238495740640686,0.11859789508289231,27.5625,-38.75,8.4375,-0.20556640625,0.68310546875,0.0166015625,0.7172370987091394,0.6130482018070459,0.3075006810736656,0.12323221021987513,22.125,-24.75,-3.0,-0.28125,0.71142578125,-0.01025390625,21.0,16.0,21.0,13.0,10.0,14.0,20.0,32.0,22.0,16.0,22.0,13.0,12.0,15.0,22.0,35.0,-0.11608208543744543,0.03521522781146478,-0.31614363962458847,-0.940924033222448,19.0,28.8125,15.125,0.0029296875,0.54052734375,0.72509765625,-0.1205354692753568,0.0332006558409084,-0.3123546996208993,-0.9417024257816483,5.1875,34.3125,8.75,-0.03759765625,0.5068359375,0.73828125,12.0,7.0,3.0,8.0,5.0,1.0,3.0,8.0,12.0,7.0,4.0,9.0,5.0,1.0,3.0,8.0,-2.0,-2.0,-2.0,-2.0,-2.0,-2.0,-2.0,-2.0,-2.0,-2.0,-2.0,-2.0,-2.0,-2.0,-2.0,-2.0,-2.0,-2.0,-2.0,-2.0,-2.0,-2.0,-2.0,-2.0,-2.0,-2.0,-2.0,-2.0,-2.0,-2.0,-2.0,-2.0,-2.0,-2.0,-2.0,-2.0
0.715301942010015,0.6231348686731156,0.2940801055213117,0.11646011650781708,18.375,-44.6875,20.625,-0.0908203125,0.7919921875,-0.0068359375,0.7159821458169464,0.6179542407715912,0.30238495740640686,0.11859789508289231,27.5625,-38.75,8.4375,-0.20556640625,0.68310546875,0.0166015625,20.0,15.0,19.0,12.0,11.0,13.0,20.0,30.0,21.0,16.0,21.0,13.0,10.0,14.0,20.0,32.0,-0.11132275028647319,0.036192100285021164,-0.32005290707361045,-0.9401401564763339,16.375,21.0625,19.9375,-0.0380859375,0.59033203125,0.673828125,-0.11608208543744543,0.03521522781146478,-0.31614363962458847,-0.940924033222448,19.0,28.8125,15.125,0.0029296875,0.54052734375,0.72509765625,11.0,8.0,4.0,8.0,5.0,2.0,3.0,8.0,12.0,7.0,3.0,8.0,5.0,1.0,3.0,8.0,-2.0,-2.0,-2.0,-2.0,-2.0,-2.0,-2.0,-2.0,-2.0,-2.0,-2.0,-2.0,-2.0,-2.0,-2.0,-2.0,-2.0,-2.0,-2.0,-2.0,-2.0,-2.0,-2.0,-2.0,-2.0,-2.0,-2.0,-2.0,-2.0,-2.0,-2.0,-2.0,-2.0,-2.0,-2.0,-2.0
0.7152887016333676,0.6273348643559818,0.28571263865054985,0.11480997079719808,11.0,-43.3125,20.375,-0.087890625,0.85205078125,-0.0087890625,0.715301942010015,0.6231348686731156,0.2940801055213117,0.11646011650781708,18.375,-44.6875,20.625,-0.0908203125,0.7919921875,-0.0068359375,18.0,16.0,18.0,12.0,11.0,13.0,19.0,29.0,20.0,15.0,19.0,12.0,11.0,13.0,20.0,30.0,-0.10698736202784825,0.035703141349852384,-0.3237695125828494,-0.9393893190716717,11.9375,10.625,21.125,-0.06689453125,0.65771484375,0.6591796875,-0.11132275028647319,0.036192100285021164,-0.32005290707361045,-0.9401401564763339,16.375,21.0625,19.9375,-0.0380859375,0.59033203125,0.673828125,11.0,8.0,4.0,8.0,5.0,2.0,3.0,9.0,11.0,8.0,4.0,8.0,5.0,2.0,3.0,8.0,-2.0,-2.0,-2.0,-2.0,-2.0,-2.0,-2.0,-2.0,-2.0,-2.0,-2.0,-2.0,-2.0,-2.0,-2.0,-2.0,-2.0,-2.0,-2.0,-2.0,-2.0,-2.0,-2.0,-2.0,-2.0,-2.0,-2.0,-2.0,-2.0,-2.0,-2.0,-2.0,-2.0,-2.0,-2.0,-2.0
0.7168350616693375,0.6296111768664183,0.27711437159219965,0.11377559221318505,-6.875,-44.375,20.875,-0.09033203125,0.8046875,-0.0537109375,0.7152887016333676,0.6273348643559818,0.28571263865054985,0.11480997079719808,11.0,-43.3125,20.375,-0.087890625,0.85205078125,-0.0087890625,17.0,14.0,20.0,13.0,11.0,12.0,18.0,26.0,18.0,16.0,18.0,12.0,11.0,13.0,19.0,29.0,-0.10296304544721263,0.03423963751979033,-0.32530707304898837,-0.9393623191926791,-3.625,2.0,21.375,-0.08447265625,0.7294921875,0.66845703125,-0.10698736202784825,0.035703141349852384,-0.3237695125828494,-0.9393893190716717,11.9375,10.625,21.125,-0.06689453125,0.65771484375,0.6591796875,11.0,8.0,4.0,8.0,5.0,2.0,3.0,9.0,11.0,8.0,4.0,8.0,5.0,2.0,3.0,9.0,-2.0,-2.0,-2.0,-2.0,-2.0,-2.0,-2.0,-2.0,-2.0,-2.0,-2.0,-2.0,-2.0,-2.0,-2.0,-2.0,-2.0,-2.0,-2.0,-2.0,-2.0,-2.0,-2.0,-2.0,-2.0,-2.0,-2.0,-2.0,-2.0,-2.0,-2.0,-2.0,-2.0,-2.0,-2.0,-2.0
0.7187151679180985,0.6318589739522851,0.2669164695801142,0.11383471661717655,-11.3125,-47.5,29.4375,-0.07177734375,0.8896484375,-0.05419921875,0.7168350616693375,0.6296111768664183,0.27711437159219965,0.11377559221318505,-6.875,-44.375,20.875,-0.09033203125,0.8046875,-0.0537109375,17.0,13.0,21.0,14.0,11.0,12.0,17.0,25.0,17.0,14.0,20.0,13.0,11.0,12.0,18.0,26.0,-0.09875094643443028,0.032835605180298814,-0.32377859754922905,-0.9403922018922755,-16.75,0.6875,23.125,-0.08251953125,0.6767578125,0.72998046875,-0.10296304544721263,0.03423963751979033,-0.32530707304898837,-0.9393623191926791,-3.625,2.0,21.375,-0.08447265625,0.7294921875,0.66845703125,11.0,8.0,5.0,10.0,6.0,2.0,3.0,9.0,11.0,8.0,4.0,8.0,5.0,2.0,3.0,9.0,-2.0,-2.0,-2.0,-2.0,-2.0,-2.0,-2.0,-2.0,-2.0,-2.0,-2.0,-2.0,-2.0,-2.0,-2.0,-2.0,-2.0,-2.0,-2.0,-2.0,-2.0,-2.0,-2.0,-2.0,-2.0,-2.0,-2.0,-2.0,-2.0,-2.0,-2.0,-2.0,-2.0,-2.0,-2.0,-2.0
0.7203200087897987,0.6343162046727895,0.2564244010614308,0.11414273505948001,-4.25,-46.0625,34.6875,-0.10498046875,0.9189453125,0.044921875,0.7187151679180985,0.6318589739522851,0.2669164695801142,0.11383471661717655,-11.3125,-47.5,29.4375,-0.07177734375,0.8896484375,-0.05419921875,16.0,13.0,21.0,14.0,11.0,13.0,18.0,24.0,17.0,13.0,21.0,14.0,11.0,12.0,17.0,25.0,-0.09533307894612757,0.03155390641174645,-0.32280195553525526,-0.941124249263308,-10.3125,0.5625,19.0,-0.08544921875,0.64306640625,0.75634765625,-0.09875094643443028,0.032835605180298814,-0.32377859754922905,-0.9403922018922755,-16.75,0.6875,23.125,-0.08251953125,0.6767578125,0.72998046875,12.0,8.0,5.0,10.0,6.0,2.0,4.0,9.0,11.0,8.0,5.0,10.0,6.0,2.0,3.0,9.0,-2.0,-2.0,-2.0,-2.0,-2.0,-2.0,-2.0,-2.0,-2.0,-2.0,-2.0,-2.0,-2.0,-2.0,-2.0,-2.0,-2.0,-2.0,-2.0,-2.0,-2.0,-2.0,-2.0,-2.0,-2.0,-2.0,-2.0,-2.0,-2.0,-2.0,-2.0,-2.0,-2.0,-2.0,-2.0,-2.0
0.7214459528910699,0.6367207661059946,0.24678957505191604,0.11487954000685283,-1.9375,-39.875,37.375,-0.126953125,0.82177734375,0.05126953125,0.7203200087897987,0.6343162046727895,0.2564244010614308,0.11414273505948001,-4.25,-46.0625,34.6875,-0.10498046875,0.9189453125,0.044921875,16.0,14.0,20.0,14.0,11.0,13.0,18.0,23.0,16.0,13.0,21.0,14.0,11.0,13.0,18.0,24.0,-0.09270776423018627,0.030455019322490423,-0.32316498459436227,-0.9412981222660717,1.4375,-0.25,15.625,-0.09619140625,0.58056640625,0.7490234375,-0.09533307894612757,0.03155390641174645,-0.32280195553525526,-0.941124249263308,-10.3125,0.5625,19.0,-0.08544921875,0.64306640625,0.75634765625,10.0,7.0,5.0,10.0,6.0,2.0,4.0,9.0,12.0,8.0,5.0,10.0,6.0,2.0,4.0,9.0,-2.0,-2.0,-2.0,-2.0,-2.0,-2.0,-2.0,-2.0,-2.0,-2.0,-2.0,-2.0,-2.0,-2.0,-2.0,-2.0,-2.0,-2.0,-2.0,-2.0,-2.0,-2.0,-2.0,-2.0,-2.0,-2.0,-2.0,-2.0,-2.0,-2.0,-2.0,-2.0,-2.0,-2.0,-2.0,-2.0
0.7209349519104724,0.6407293362292972,0.23762592225785023,0.11512008460783599,8.375,-39.5,36.875,-0.11474609375,0.83349609375,0.0029296875,0.7214459528910699,0.6367207661059946,0.24678957505191604,0.11487954000685283,-1.9375,-39.875,37.375,-0.126953125,0.82177734375,0.05126953125,16.0,14.0,19.0,13.0,11.0,12.0,18.0,22.0,16.0,14.0,20.0,14.0,11.0,13.0,18.0,23.0,-0.0894755496498896,0.027343142048533792,-0.3260425554090793,-0.9407139473081503,18.4375,-6.5,21.4375,-0.0595703125,0.5703125,0.7568359375,-0.09270776423018627,0.030455019322490423,-0.32316498459436227,-0.9412981222660717,1.4375,-0.25,15.625,-0.09619140625,0.58056640625,0.7490234375,10.0,7.0,5.0,12.0,7.0,2.0,3.0,9.0,10.0,7.0,5.0,10.0,6.0,2.0,4.0,9.0,-2.0,-2.0,-2.0,-2.0,-2.0,-2.0,-2.0,-2.0,-2.0,-2.0,-2.0,-2.0,-2.0,-2.0,-2.0,-2.0,-2.0,-2.0,-2.0,-2.0,-2.0,-2.0,-2.0,-2.0,-2.0,-2.0,-2.0,-2.0,-2.0,-2.0,-2.0,-2.0,-2.0,-2.0,-2.0,-2.0
0.7193721631871138,0.6461898092365497,0.22766487092210544,0.11450383320371844,23.5,-44.1875,34.0,-0.056640625,0.98486328125,0.07470703125,0.7209349519104724,0.6407293362292972,0.23762592225785023,0.11512008460783599,8.375,-39.5,36.875,-0.11474609375,0.83349609375,0.0029296875,15.0,13.0,20.0,13.0,10.0,12.0,19.0,22.0,16.0,14.0,19.0,13.0,11.0,12.0,18.0,22.0,-0.08532336240007342,0.022887168025770767,-0.3320775499419167,-0.9391062784334261,36.9375,-6.1875,25.8125,0.015625,0.65185546875,0.81298828125,-0.0894755496498896,0.027343142048533792,-0.3260425554090793,-0.9407139473081503,18.4375,-6.5,21.4375,-0.0595703125,0.5703125,0.7568359375,10.0,7.0,6.0,12.0,7.0,2.0,3.0,9.0,10.0,7.0,5.0,12.0,7.0,2.0,3.0,9.0,-2.0,-2.0,-2.0,-2.0,-2.0,-2.0,-2.0,-2.0,-2.0,-2.0,-2.0,-2.0,-2.0,-2.0,-2.0,-2.0,-2.0,-2.0,-2.0,-2.0,-2.0,-2.0,-2.0,-2.0,-2.0,-2.0,-2.0,-2.0,-2.0,-2.0,-2.0,-2.0,-2.0,-2.0,-2.0,-2.0
0.7183385599903181,0.6505880457929136,0.21820548491506392,0.11450447264354124,18.75,-39.375,31.625,-0.029296875,1.01953125,0.103515625,0.7193721631871138,0.6461898092365497,0.22766487092210544,0.11450383320371844,23.5,-44.1875,34.0,-0.056640625,0.98486328125,0.07470703125,17.0,14.0,21.0,13.0,10.0,11.0,18.0,22.0,15.0,13.0,20.0,13.0,10.0,12.0,19.0,22.0,-0.08141817084943483,0.019591628817592636,-0.3381844712719028,-0.9373465276653823,35.4375,-1.6875,22.3125,0.00439453125,0.7119140625,0.83203125,-0.08532336240007342,0.022887168025770767,-0.3320775499419167,-0.9391062784334261,36.9375,-6.1875,25.8125,0.015625,0.65185546875,0.81298828125,11.0,8.0,6.0,15.0,8.0,2.0,4.0,9.0,10.0,7.0,6.0,12.0,7.0,2.0,3.0,9.0,-2.0,-2.0,-2.0,-2.0,-2.0,-2.0,-2.0,-2.0,-2.0,-2.0,-2.0,-2.0,-2.0,-2.0,-2.0,-2.0,-2.0,-2.0,-2.0,-2.0,-2.0,-2.0,-2.0,-2.0,-2.0,-2.0,-2.0,-2.0,-2.0,-2.0,-2.0,-2.0,-2.0,-2.0,-2.0,-2.0
0.718233682883925,0.6532892927599769,0.2103368123751173,0.11450721416590832,4.25,-34.1875,24.9375,-0.05029296875,1.0400390625,0.0302734375,0.7183385599903181,0.6505880457929136,0.21820548491506392,0.11450447264354124,18.75,-39.375,31.625,-0.029296875,1.01953125,0.103515625,17.0,14.0,22.0,13.0,8.0,10.0,18.0,21.0,17.0,14.0,21.0,13.0,10.0,11.0,18.0,22.0,-0.07811980548438285,0.016356334273292663,-0.3432388953470072,-0.9358508572636928,21.25,-5.9375,20.9375,-0.04150390625,0.8134765625,0.755859375,-0.08141817084943483,0.019591628817592636,-0.3381844712719028,-0.9373465276653823,35.4375,-1.6875,22.3125,0.00439453125,0.7119140625,0.83203125,11.0,8.0,7.0,17.0,9.0,2.0,4.0,9.0,11.0,8.0,6.0,15.0,8.0,2.0,4.0,9.0,-2.0,-2.0,-2.0,-2.0,-2.0,-2.0,-2.0,-2.0,-2.0,-2.0,-2.0,-2.0,-2.0,-2.0,-2.0,-2.0,-2.0,-2.0,-2.0,-2.0,-2.0,-2.0,-2.0,-2.0,-2.0,-2.0,-2.0,-2.0,-2.0,-2.0,-2.0,-2.0,-2.0,-2.0,-2.0,-2.0
0.7183141032996576,0.6558705846324627,0.2024073391010932,0.11353367030399077,0.5,-38.1875,20.75,-0.041015625,1.07666015625,-0.02001953125,0.718233682883925,0.6532892927599769,0.2103368123751173,0.11450721416590832,4.25,-34.1875,24.9375,-0.05029296875,1.0400390625,0.0302734375,16.0,15.0,24.0,13.0,8.0,9.0,17.0,20.0,17.0,14.0,22.0,13.0,8.0,10.0,18.0,21.0,-0.07549684593056823,0.012694700043296842,-0.3452592218506261,-0.9353796772286893,-2.1875,-12.625,18.5,-0.04541015625,0.87548828125,0.6953125,-0.07811980548438285,0.016356334273292663,-0.3432388953470072,-0.9358508572636928,21.25,-5.9375,20.9375,-0.04150390625,0.8134765625,0.755859375,11.0,9.0,7.0,19.0,9.0,2.0,3.0,9.0,11.0,8.0,7.0,17.0,9.0,2.0,4.0,9.0,-2.0,-2.0,-2.0,-2.0,-2.0,-2.0,-2.0,-2.0,-2.0,-2.0,-2.0,-2.0,-2.0,-2.0,-2.0,-2.0,-2.0,-2.0,-2.0,-2.0,-2.0,-2.0,-2.0,-2.0,-2.0,-2.0,-2.0,-2.0,-2.0,-2.0,-2.0,-2.0,-2.0,-2.0,-2.0,-2.0
0.7191104904000714,0.6573992005439919,0.19410672773722326,0.11414452228572562,-4.8125,-33.5,21.6875,0.0458984375,1.09326171875,0.037109375,0.7183141032996576,0.6558705846324627,0.2024073391010932,0.11353367030399077,0.5,-38.1875,20.75,-0.041015625,1.07666015625,-0.02001953125,16.0,15.0,24.0,13.0,8.0,11.0,19.0,23.0,16.0,15.0,24.0,13.0,8.0,9.0,17.0,20.0,-0.07403362889807195,0.009521225150947424,-0.34129930156473076,-0.9369862084445183,-35.125,-13.8125,11.625,-0.02734375,0.828125,0.73388671875,-0.07549684593056823,0.012694700043296842,-0.3452592218506261,-0.9353796772286893,-2.1875,-12.625,18.5,-0.04541015625,0.87548828125,0.6953125,12.0,8.0,8.0,22.0,10.0,2.0,4.0,9.0,11.0,9.0,7.0,19.0,9.0,2.0,3.0,9.0,-2.0,-2.0,-2.0,-2.0,-2.0,-2.0,-2.0,-2.0,-2.0,-2.0,-2.0,-2.0,-2.0,-2.0,-2.0,-2.0,-2.0,-2.0,-2.0,-2.0,-2.0,-2.0,-2.0,-2.0,-2.0,-2.0,-2.0,-2.0,-2.0,-2.0,-2.0,-2.0,-2.0,-2.0,-2.0,-2.0
0.7207232687692691,0.6570618215024714,0.18805457241515228,0.11603107502797938,-14.875,-19.0625,18.5625,0.02734375,1.0478515625,0.0498046875,0.7191104904000714,0.6573992005439919,0.19410672773722326,0.11414452228572562,-4.8125,-33.5,21.6875,0.0458984375,1.09326171875,0.037109375,16.0,15.0,25.0,14.0,7.0,10.0,19.0,24.0,16.0,15.0,24.0,13.0,8.0,11.0,19.0,23.0,-0.07324130416925116,0.0066527517953736464,-0.3348958633139009,-0.9393807603907871,-39.4375,-13.25,7.375,0.00048828125,0.66650390625,0.78564453125,-0.07403362889807195,0.009521225150947424,-0.34129930156473076,-0.9369862084445183,-35.125,-13.8125,11.625,-0.02734375,0.828125,0.73388671875,11.0,8.0,8.0,23.0,10.0,2.0,3.0,8.0,12.0,8.0,8.0,22.0,10.0,2.0,4.0,9.0,-2.0,-2.0,-2.0,-2.0,-2.0,-2.0,-2.0,-2.0,-2.0,-2.0,-2.0,-2.0,-2.0,-2.0,-2.0,-2.0,-2.0,-2.0,-2.0,-2.0,-2.0,-2.0,-2.0,-2.0,-2.0,-2.0,-2.0,-2.0,-2.0,-2.0,-2.0,-2.0,-2.0,-2.0,-2.0,-2.0
0.7227480752828304,0.6559117318629587,0.18360157169586636,0.11707041705873393,-19.4375,-15.625,11.6875,-0.015625,1.017578125,0.03271484375,0.7207232687692691,0.6570618215024714,0.18805457241515228,0.11603107502797938,-14.875,-19.0625,18.5625,0.02734375,1.0478515625,0.0498046875,15.0,16.0,25.0,13.0,6.0,9.0,18.0,25.0,16.0,15.0,25.0,14.0,7.0,10.0,19.0,24.0,-0.07183408213644743,0.002990543776283708,-0.33176726465057627,-0.9406175648996838,-19.8125,-13.0625,10.6875,0.044921875,0.66455078125,0.78662109375,-0.07324130416925116,0.0066527517953736464,-0.3348958633139009,-0.9393807603907871,-39.4375,-13.25,7.375,0.00048828125,0.66650390625,0.78564453125,11.0,8.0,8.0,24.0,11.0,2.0,4.0,9.0,11.0,8.0,8.0,23.0,10.0,2.0,3.0,8.0,-2.0,-2.0,-2.0,-2.0,-2.0,-2.0,-2.0,-2.0,-2.0,-2.0,-2.0,-2.0,-2.0,-2.0,-2.0,-2.0,-2.0,-2.0,-2.0,-2.0,-2.0,-2.0,-2.0,-2.0,-2.0,-2.0,-2.0,-2.0,-2.0,-2.0,-2.0,-2.0,-2.0,-2.0,-2.0,-2.0
0.7243401991678056,0.6553060064266926,0.17884189631428923,0.11798682101553622,-15.625,-17.0625,10.875,0.025390625,0.9775390625,0.03125,0.7227480752828304,0.6559117318629587,0.18360157169586636,0.11707041705873393,-19.4375,-15.625,11.6875,-0.015625,1.017578125,0.03271484375,16.0,14.0,25.0,13.0,6.0,9.0,18.0,24.0,15.0,16.0,25.0,13.0,6.0,9.0,18.0,25.0,-0.07031028688915306,-0.0005492991163215083,-0.33220389890421886,-0.9405831868478627,-1.375,-11.8125,11.125,0.029296875,0.75634765625,0.8251953125,-0.07183408213644743,0.002990543776283708,-0.33176726465057627,-0.9406175648996838,-19.8125,-13.0625,10.6875,0.044921875,0.66455078125,0.78662109375,11.0,8.0,8.0,25.0,11.0,2.0,3.0,8.0,11.0,8.0,8.0,24.0,11.0,2.0,4.0,9.0,-2.0,-2.0,-2.0,-2.0,-2.0,-2.0,-2.0,-2.0,-2.0,-2.0,-2.0,-2.0,-2.0,-2.0,-2.0,-2.0,-2.0,-2.0,-2.0,-2.0,-2.0,-2.0,-2.0,-2.0,-2.0,-2.0,-2.0,-2.0,-2.0,-2.0,-2.0,-2.0,-2.0,-2.0,-2.0,-2.0
0.7247734637990555,0.6556776611192062,0.17432651276824176,0.12000207426553337,-3.8125,-11.4375,19.1875,0.0009765625,0.9169921875,0.0947265625,0.7243401991678056,0.6553060064266926,0.17884189631428923,0.11798682101553622,-15.625,-17.0625,10.875,0.025390625,0.9775390625,0.03125,15.0,14.0,22.0,11.0,6.0,10.0,19.0,25.0,16.0,14.0,25.0,13.0,6.0,9.0,18.0,24.0,-0.06951720299873165,-0.0025634087146152148,-0.33165626083854943,-0.940832031804608,-1.3125,-9.6875,8.375,-0.0458984375,0.65625,0.8515625,-0.07031028688915306,-0.0005492991163215083,-0.33220389890421886,-0.9405831868478627,-1.375,-11.8125,11.125,0.029296875,0.75634765625,0.8251953125,11.0,7.0,8.0,24.0,10.0,2.0,3.0,8.0,11.0,8.0,8.0,25.0,11.0,2.0,3.0,8.0,-2.0,-2.0,-2.0,-2.0,-2.0,-2.0,-2.0,-2.0,-2.0,-2.0,-2.0,-2.0,-2.0,-2.0,-2.0,-2.0,-2.0,-2.0,-2.0,-2.0,-2.0,-2.0,-2.0,-2.0,-2.0,-2.0,-2.0,-2.0,-2.0,-2.0,-2.0,-2.0,-2.0,-2.0,-2.0,-2.0
0.7229494865748696,0.6583088663213416,0.17054380829873234,0.12201756363248602,14.9375,-7.9375,26.0625,-0.06982421875,0.83642578125,0.0888671875,0.7247734637990555,0.6556776611192062,0.17432651276824176,0.12000207426553337,-3.8125,-11.4375,19.1875,0.0009765625,0.9169921875,0.0947265625,14.0,14.0,20.0,10.0,5.0,8.0,18.0,24.0,15.0,14.0,22.0,11.0,6.0,10.0,19.0,25.0,-0.06792798430281244,-0.005492828919364887,-0.3325602753513252,-0.9406164367250182,16.625,-12.125,14.375,-0.03515625,0.4716796875,0.81201171875,-0.06951720299873165,-0.0025634087146152148,-0.33165626083854943,-0.940832031804608,-1.3125,-9.6875,8.375,-0.0458984375,0.65625,0.8515625,11.0,7.0,7.0,24.0,10.0,2.0,3.0,8.0,11.0,7.0,8.0,24.0,10.0,2.0,3.0,8.0,-2.0,-2.0,-2.0,-2.0,-2.0,-2.0,-2.0,-2.0,-2.0,-2.0,-2.0,-2.0,-2.0,-2.0,-2.0,-2.0,-2.0,-2.0,-2.0,-2.0,-2.0,-2.0,-2.0,-2.0,-2.0,-2.0,-2.0,-2.0,-2.0,-2.0,-2.0,-2.0,-2.0,-2.0,-2.0,-2.0
0.7205555656260122,0.6614706196263528,0.1664510823771398,0.12470097590630606,20.75,-6.25,30.125,-0.05322265625,0.91796875,0.125,0.7229494865748696,0.6583088663213416,0.17054380829873234,0.12201756363248602,14.9375,-7.9375,26.0625,-0.06982421875,0.83642578125,0.0888671875,14.0,14.0,20.0,10.0,5.0,8.0,17.0,24.0,14.0,14.0,20.0,10.0,5.0,8.0,18.0,24.0,-0.06548627050014545,-0.009276713062462357,-0.338111778723957,-0.9387789495183947,42.625,-12.1875,18.375,0.00341796875,0.50341796875,0.78369140625,-0.06792798430281244,-0.005492828919364887,-0.3325602753513252,-0.9406164367250182,16.625,-12.125,14.375,-0.03515625,0.4716796875,0.81201171875,11.0,7.0,7.0,24.0,10.0,2.0,3.0,8.0,11.0,7.0,7.0,24.0,10.0,2.0,3.0,8.0,-2.0,-2.0,-2.0,-2.0,-2.0,-2.0,-2.0,-2.0,-2.0,-2.0,-2.0,-2.0,-2.0,-2.0,-2.0,-2.0,-2.0,-2.0,-2.0,-2.0,-2.0,-2.0,-2.0,-2.0,-2.0,-2.0,-2.0,-2.0,-2.0,-2.0,-2.0,-2.0,-2.0,-2.0,-2.0,-2.0
0.7189060927914722,0.6638497762947914,0.16297157987376726,0.12616563880115242,14.25,-8.875,23.0625,-0.06591796875,0.9541015625,0.08935546875,0.7205555656260122,0.6614706196263528,0.1664510823771398,0.12470097590630606,20.75,-6.25,30.125,-0.05322265625,0.91796875,0.125,14.0,14.0,20.0,10.0,5.0,8.0,17.0,26.0,14.0,14.0,20.0,10.0,5.0,8.0,17.0,24.0,-0.06268060761526287,-0.01214551208903341,-0.3455062509347645,-0.936241987164686,48.5625,-7.125,18.875,-0.01513671875,0.63916015625,0.80712890625,-0.06548627050014545,-0.009276713062462357,-0.338111778723957,-0.9387789495183947,42.625,-12.1875,18.375,0.00341796875,0.50341796875,0.78369140625,11.0,7.0,7.0,23.0,10.0,2.0,4.0,7.0,11.0,7.0,7.0,24.0,10.0,2.0,3.0,8.0,-2.0,-2.0,-2.0,-2.0,-2.0,-2.0,-2.0,-2.0,-2.0,-2.0,-2.0,-2.0,-2.0,-2.0,-2.0,-2.0,-2.0,-2.0,-2.0,-2.0,-2.0,-2.0,-2.0,-2.0,-2.0,-2.0,-2.0,-2.0,-2.0,-2.0,-2.0,-2.0,-2.0,-2.0,-2.0,-2.0
0.7180073496480559,0.6657575586679713,0.15851951772813067,0.12690106944812618,9.1875,-16.1875,24.125,-0.08544921875,0.943359375,0.0888671875,0.7189060927914722,0.6638497762947914,0.16297157987376726,0.12616563880115242,14.25,-8.875,23.0625,-0.06591796875,0.9541015625,0.08935546875,14.0,14.0,19.0,10.0,5.0,7.0,17.0,26.0,14.0,14.0,20.0,10.0,5.0,8.0,17.0,26.0,-0.060179315266039875,-0.0137936361563134,-0.34978464076031895,-0.934793501637593,25.8125,-4.1875,17.375,-0.05322265625,0.6904296875,0.77783203125,-0.06268060761526287,-0.01214551208903341,-0.3455062509347645,-0.936241987164686,48.5625,-7.125,18.875,-0.01513671875,0.63916015625,0.80712890625,11.0,7.0,7.0,23.0,10.0,2.0,3.0,8.0,11.0,7.0,7.0,23.0,10.0,2.0,4.0,7.0,-2.0,-2.0,-2.0,-2.0,-2.0,-2.0,-2.0,-2.0,-2.0,-2.0,-2.0,-2.0,-2.0,-2.0,-2.0,-2.0,-2.0,-2.0,-2.0,-2.0,-2.0,-2.0,-2.0,-2.0,-2.0,-2.0,-2.0,-2.0,-2.0,-2.0,-2.0,-2.0,-2.0,-2.0,-2.0,-2.0
0.7186123052477076,0.6663018707282745,0.15290272867115498,0.1275104990794582,0.1875,-21.5,26.25,-0.07666015625,0.96337890625,0.13623046875,0.7180073496480559,0.6657575586679713,0.15851951772813067,0.12690106944812618,9.1875,-16.1875,24.125,-0.08544921875,0.943359375,0.0888671875,14.0,14.0,18.0,9.0,5.0,7.0,16.0,25.0,14.0,14.0,19.0,10.0,5.0,7.0,17.0,26.0,-0.058406364658824865,-0.015196640334427787,-0.34982788111220914,-0.934868018645642,-2.6875,-6.5,14.4375,-0.0595703125,0.7099609375,0.74755859375,-0.060179315266039875,-0.0137936361563134,-0.34978464076031895,-0.934793501637593,25.8125,-4.1875,17.375,-0.05322265625,0.6904296875,0.77783203125,11.0,7.0,7.0,23.0,10.0,2.0,3.0,7.0,11.0,7.0,7.0,23.0,10.0,2.0,3.0,8.0,-2.0,-2.0,-2.0,-2.0,-2.0,-2.0,-2.0,-2.0,-2.0,-2.0,-2.0,-2.0,-2.0,-2.0,-2.0,-2.0,-2.0,-2.0,-2.0,-2.0,-2.0,-2.0,-2.0,-2.0,-2.0,-2.0,-2.0,-2.0,-2.0,-2.0,-2.0,-2.0,-2.0,-2.0,-2.0,-2.0
0.7194037606353685,0.6664830869147793,0.1475308747204892,0.12842571800244487,1.25,-18.9375,21.3125,-0.009765625,1.033203125,0.18310546875,0.7186123052477076,0.6663018707282745,0.15290272867115498,0.1275104990794582,0.1875,-21.5,26.25,-0.07666015625,0.96337890625,0.13623046875,12.0,14.0,15.0,8.0,4.0,6.0,15.0,23.0,14.0,14.0,18.0,9.0,5.0,7.0,16.0,25.0,-0.05718803993104123,-0.0165399773973449,-0.3464240284403309,-0.9361871339404925,-22.0625,-6.875,10.8125,-0.029296875,0.74267578125,0.83056640625,-0.058406364658824865,-0.015196640334427787,-0.34982788111220914,-0.934868018645642,-2.6875,-6.5,14.4375,-0.0595703125,0.7099609375,0.74755859375,9.0,6.0,6.0,19.0,8.0,2.0,3.0,7.0,11.0,7.0,7.0,23.0,10.0,2.0,3.0,7.0,-2.0,-2.0,-2.0,-2.0,-2.0,-2.0,-2.0,-2.0,-2.0,-2.0,-2.0,-2.0,-2.0,-2.0,-2.0,-2.0,-2.0,-2.0,-2.0,-2.0,-2.0,-2.0,-2.0,-2.0,-2.0,-2.0,-2.0,-2.0,-2.0,-2.0,-2.0,-2.0,-2.0,-2.0,-2.0,-2.0
0.7196576342750161,0.6663700079203012,0.1453964787822806,0.13001448354586806,8.6875,-2.0625,7.75,0.0517578125,1.15478515625,0.26953125,0.7194037606353685,0.6664830869147793,0.1475308747204892,0.12842571800244487,1.25,-18.9375,21.3125,-0.009765625,1.033203125,0.18310546875,12.0,12.0,13.0,8.0,4.0,6.0,15.0,23.0,12.0,14.0,15.0,8.0,4.0,6.0,15.0,23.0,-0.05657850785928615,-0.016540211035454742,-0.3409968968822349,-0.9382144798413664,-31.5,0.0,4.0,0.00048828125,0.7607421875,0.939453125,-0.05718803993104123,-0.0165399773973449,-0.3464240284403309,-0.9361871339404925,-22.0625,-6.875,10.8125,-0.029296875,0.74267578125,0.83056640625,9.0,6.0,5.0,17.0,7.0,2.0,3.0,7.0,9.0,6.0,6.0,19.0,8.0,2.0,3.0,7.0,-2.0,-2.0,-2.0,-2.0,-2.0,-2.0,-2.0,-2.0,-2.0,-2.0,-2.0,-2.0,-2.0,-2.0,-2.0,-2.0,-2.0,-2.0,-2.0,-2.0,-2.0,-2.0,-2.0,-2.0,-2.0,-2.0,-2.0,-2.0,-2.0,-2.0,-2.0,-2.0,-2.0,-2.0,-2.0,-2.0
0.7203349348179127,0.6649104690256353,0.14722886728080717,0.13166362633694073,-2.625,14.6875,-1.75,-0.0439453125,1.2021484375,0.17138671875,0.7196576342750161,0.6663700079203012,0.1453964787822806,0.13001448354586806,8.6875,-2.0625,7.75,0.0517578125,1.15478515625,0.26953125,11.0,11.0,12.0,7.0,4.0,6.0,15.0,22.0,12.0,12.0,13.0,8.0,4.0,6.0,15.0,23.0,-0.05602954290016846,-0.015136521393509562,-0.33434622658727975,-0.94066156337407,-33.6875,6.1875,2.25,-0.02001953125,0.677734375,0.99658203125,-0.05657850785928615,-0.016540211035454742,-0.3409968968822349,-0.9382144798413664,-31.5,0.0,4.0,0.00048828125,0.7607421875,0.939453125,9.0,6.0,5.0,16.0,7.0,2.0,3.0,6.0,9.0,6.0,5.0,17.0,7.0,2.0,3.0,7.0,-2.0,-2.0,-2.0,-2.0,-2.0,-2.0,-2.0,-2.0,-2.0,-2.0,-2.0,-2.0,-2.0,-2.0,-2.0,-2.0,-2.0,-2.0,-2.0,-2.0,-2.0,-2.0,-2.0,-2.0,-2.0,-2.0,-2.0,-2.0,-2.0,-2.0,-2.0,-2.0,-2.0,-2.0,-2.0,-2.0
0.7215317582917495,0.6630572278422532,0.14911615645941495,0.13233067016128186,-11.125,10.1875,-1.1875,-0.1318359375,1.18359375,0.09375,0.7203349348179127,0.6649104690256353,0.14722886728080717,0.13166362633694073,-2.625,14.6875,-1.75,-0.0439453125,1.2021484375,0.17138671875,11.0,12.0,11.0,6.0,4.0,5.0,13.0,20.0,11.0,11.0,12.0,7.0,4.0,6.0,15.0,22.0,-0.054867374866469046,-0.013365912231097576,-0.32902115451071706,-0.942632485887224,-24.1875,7.125,6.5,-0.0693359375,0.59716796875,0.95703125,-0.05602954290016846,-0.015136521393509562,-0.33434622658727975,-0.94066156337407,-33.6875,6.1875,2.25,-0.02001953125,0.677734375,0.99658203125,9.0,6.0,5.0,15.0,7.0,2.0,3.0,6.0,9.0,6.0,5.0,16.0,7.0,2.0,3.0,6.0,-2.0,-2.0,-2.0,-2.0,-2.0,-2.0,-2.0,-2.0,-2.0,-2.0,-2.0,-2.0,-2.0,-2.0,-2.0,-2.0,-2.0,-2.0,-2.0,-2.0,-2.0,-2.0,-2.0,-2.0,-2.0,-2.0,-2.0,-2.0,-2.0,-2.0,-2.0,-2.0,-2.0,-2.0,-2.0,-2.0
0.7248206788658731,0.659327408261824,0.14954195058706435,0.13251247947939457,-26.625,1.9375,0.5,-0.1484375,1.11767578125,0.10986328125,0.7215317582917495,0.6630572278422532,0.14911615645941495,0.13233067016128186,-11.125,10.1875,-1.1875,-0.1318359375,1.18359375,0.09375,11.0,12.0,9.0,6.0,4.0,5.0,13.0,18.0,11.0,12.0,11.0,6.0,4.0,5.0,13.0,20.0,-0.05389219908254209,-0.011840415200467911,-0.3268931124417842,-0.9434491658187267,-7.0625,6.375,5.4375,-0.07275390625,0.58447265625,0.88525390625,-0.054867374866469046,-0.013365912231097576,-0.32902115451071706,-0.942632485887224,-24.1875,7.125,6.5,-0.0693359375,0.59716796875,0.95703125,9.0,6.0,5.0,13.0,6.0,2.0,3.0,7.0,9.0,6.0,5.0,15.0,7.0,2.0,3.0,6.0,-2.0,-2.0,-2.0,-2.0,-2.0,-2.0,-2.0,-2.0,-2.0,-2.0,-2.0,-2.0,-2.0,-2.0,-2.0,-2.0,-2.0,-2.0,-2.0,-2.0,-2.0,-2.0,-2.0,-2.0,-2.0,-2.0,-2.0,-2.0,-2.0,-2.0,-2.0,-2.0,-2.0,-2.0,-2.0,-2.0
0.7287889288474273,0.6551775847779133,0.14887070330476343,0.13208536365375484,-30.8125,-4.875,-0.0625,-0.12060546875,0.91943359375,0.11328125,0.7248206788658731,0.659327408261824,0.14954195058706435,0.13251247947939457,-26.625,1.9375,0.5,-0.1484375,1.11767578125,0.10986328125,12.0,11.0,8.0,6.0,4.0,5.0,12.0,17.0,11.0,12.0,9.0,6.0,4.0,5.0,13.0,18.0,-0.05267054319509512,-0.009948202248899774,-0.32755829122604346,-0.9433092880919933,7.3125,9.875,5.1875,-0.06494140625,0.5859375,0.83740234375,-0.05389219908254209,-0.011840415200467911,-0.3268931124417842,-0.9434491658187267,-7.0625,6.375,5.4375,-0.07275390625,0.58447265625,0.88525390625,10.0,6.0,4.0,11.0,5.0,2.0,3.0,6.0,9.0,6.0,5.0,13.0,6.0,2.0,3.0,7.0,-2.0,-2.0,-2.0,-2.0,-2.0,-2.0,-2.0,-2.0,-2.0,-2.0,-2.0,-2.0,-2.0,-2.0,-2.0,-2.0,-2.0,-2.0,-2.0,-2.0,-2.0,-2.0,-2.0,-2.0,-2.0,-2.0,-2.0,-2.0,-2.0,-2.0,-2.0,-2.0,-2.0,-2.0,-2.0,-2.0
0.7309348018034469,0.653232922663924,0.1475908434873265,0.13129359153897407,-13.9375,-8.8125,-0.0625,-0.0625,0.82861328125,0.12353515625,0.7287889288474273,0.6551775847779133,0.14887070330476343,0.13208536365375484,-30.8125,-4.875,-0.0625,-0.12060546875,0.91943359375,0.11328125,12.0,11.0,8.0,6.0,4.0,5.0,13.0,18.0,12.0,11.0,8.0,6.0,4.0,5.0,12.0,17.0,-0.05090119668818715,-0.008361467561488777,-0.33012538715396195,-0.9425265952705925,16.875,11.0,7.25,-0.046875,0.59912109375,0.79345703125,-0.05267054319509512,-0.009948202248899774,-0.32755829122604346,-0.9433092880919933,7.3125,9.875,5.1875,-0.06494140625,0.5859375,0.83740234375,10.0,6.0,4.0,10.0,4.0,2.0,3.0,6.0,10.0,6.0,4.0,11.0,5.0,2.0,3.0,6.0,-2.0,-2.0,-2.0,-2.0,-2.0,-2.0,-2.0,-2.0,-2.0,-2.0,-2.0,-2.0,-2.0,-2.0,-2.0,-2.0,-2.0,-2.0,-2.0,-2.0,-2.0,-2.0,-2.0,-2.0,-2.0,-2.0,-2.0,-2.0,-2.0,-2.0,-2.0,-2.0,-2.0,-2.0,-2.0,-2.0
0.7301251828163975,0.6545613158771983,0.14679410338350077,0.13006995189614973,10.625,-8.4375,-1.4375,-0.02294921875,0.82666015625,0.107421875,0.7309348018034469,0.653232922663924,0.1475908434873265,0.13129359153897407,-13.9375,-8.8125,-0.0625,-0.0625,0.82861328125,0.12353515625,13.0,12.0,8.0,6.0,4.0,5.0,12.0,18.0,12.0,11.0,8.0,6.0,4.0,5.0,13.0,18.0,-0.048949721108625964,-0.007080009536908494,-0.3333097593194594,-0.9415191992788831,17.875,11.25,7.75,-0.02099609375,0.654296875,0.78955078125,-0.05090119668818715,-0.008361467561488777,-0.33012538715396195,-0.9425265952705925,16.875,11.0,7.25,-0.046875,0.59912109375,0.79345703125,11.0,7.0,4.0,9.0,4.0,2.0,3.0,7.0,10.0,6.0,4.0,10.0,4.0,2.0,3.0,6.0,-2.0,-2.0,-2.0,-2.0,-2.0,-2.0,-2.0,-2.0,-2.0,-2.0,-2.0,-2.0,-2.0,-2.0,-2.0,-2.0,-2.0,-2.0,-2.0,-2.0,-2.0,-2.0,-2.0,-2.0,-2.0,-2.0,-2.0,-2.0,-2.0,-2.0,-2.0,-2.0,-2.0,-2.0,-2.0,-2.0
0.7269820133505254,0.6584955466016346,0.14618991788199062,0.12848842469377464,30.25,-8.6875,0.9375,-0.03515625,0.91162109375,0.10009765625,0.7301251828163975,0.6545613158771983,0.14679410338350077,0.13006995189614973,10.625,-8.4375,-1.4375,-0.02294921875,0.82666015625,0.107421875,13.0,12.0,7.0,5.0,4.0,5.0,12.0,17.0,13.0,12.0,8.0,6.0,4.0,5.0,12.0,18.0,-0.04711845062198787,-0.005493083621734337,-0.33550534076304056,-0.9408431558781645,12.375,12.125,7.0625,-0.0341796875,0.65771484375,0.7998046875,-0.048949721108625964,-0.007080009536908494,-0.3333097593194594,-0.9415191992788831,17.875,11.25,7.75,-0.02099609375,0.654296875,0.78955078125,9.0,7.0,4.0,9.0,3.0,1.0,2.0,7.0,11.0,7.0,4.0,9.0,4.0,2.0,3.0,7.0,-2.0,-2.0,-2.0,-2.0,-2.0,-2.0,-2.0,-2.0,-2.0,-2.0,-2.0,-2.0,-2.0,-2.0,-2.0,-2.0,-2.0,-2.0,-2.0,-2.0,-2.0,-2.0,-2.0,-2.0,-2.0,-2.0,-2.0,-2.0,-2.0,-2.0,-2.0,-2.0,-2.0,-2.0,-2.0,-2.0
0.7234859286650743,0.6627529075715326,0.14514886850295677,0.12750882519036025,31.5625,-7.9375,6.375,-0.0419921875,0.90234375,0.0791015625,0.7269820133505254,0.6584955466016346,0.14618991788199062,0.12848842469377464,30.25,-8.6875,0.9375,-0.03515625,0.91162109375,0.10009765625,13.0,11.0,7.0,5.0,4.0,5.0,12.0,16.0,13.0,12.0,7.0,5.0,4.0,5.0,12.0,17.0,-0.04540934918046113,-0.0037841124317050936,-0.3361146316354831,-0.9407181437075904,4.0625,10.0625,8.0625,-0.06884765625,0.61083984375,0.76953125,-0.04711845062198787,-0.005493083621734337,-0.33550534076304056,-0.9408431558781645,12.375,12.125,7.0625,-0.0341796875,0.65771484375,0.7998046875,9.0,7.0,4.0,9.0,3.0,1.0,2.0,7.0,9.0,7.0,4.0,9.0,3.0,1.0,2.0,7.0,-2.0,-2.0,-2.0,-2.0,-2.0,-2.0,-2.0,-2.0,-2.0,-2.0,-2.0,-2.0,-2.0,-2.0,-2.0,-2.0,-2.0,-2.0,-2.0,-2.0,-2.0,-2.0,-2.0,-2.0,-2.0,-2.0,-2.0,-2.0,-2.0,-2.0,-2.0,-2.0,-2.0,-2.0,-2.0,-2.0
0.7209788022851755,0.6658006074607766,0.14447653445724776,0.12659245140022468,21.25,-6.6875,3.3125,-0.04052734375,0.99365234375,0.05419921875,0.7234859286650743,0.6627529075715326,0.14514886850295677,0.12750882519036025,31.5625,-7.9375,6.375,-0.0419921875,0.90234375,0.0791015625,11.0,10.0,6.0,6.0,4.0,5.0,11.0,14.0,13.0,11.0,7.0,5.0,4.0,5.0,12.0,16.0,-0.04376121488312369,-0.002624452217537404,-0.3363571202522938,-0.9407135355559071,0.4375,6.9375,8.5625,-0.07080078125,0.63330078125,0.7587890625,-0.04540934918046113,-0.0037841124317050936,-0.3361146316354831,-0.9407181437075904,4.0625,10.0625,8.0625,-0.06884765625,0.61083984375,0.76953125,9.0,7.0,4.0,8.0,3.0,1.0,2.0,7.0,9.0,7.0,4.0,9.0,3.0,1.0,2.0,7.0,-2.0,-2.0,-2.0,-2.0,-2.0,-2.0,-2.0,-2.0,-2.0,-2.0,-2.0,-2.0,-2.0,-2.0,-2.0,-2.0,-2.0,-2.0,-2.0,-2.0,-2.0,-2.0,-2.0,-2.0,-2.0,-2.0,-2.0,-2.0,-2.0,-2.0,-2.0,-2.0,-2.0,-2.0,-2.0,-2.0
0.7193944212725056,0.6675731194177325,0.14435498102065805,0.1264097952193585,15.1875,-1.1875,2.0625,-0.03662109375,0.9677734375,0.0908203125,0.7209788022851755,0.6658006074607766,0.14447653445724776,0.12659245140022468,21.25,-6.6875,3.3125,-0.04052734375,0.99365234375,0.05419921875,12.0,10.0,8.0,6.0,4.0,5.0,11.0,14.0,11.0,10.0,6.0,6.0,4.0,5.0,11.0,14.0,-0.0421120501820253,-0.0015868308764241418,-0.33665227362906025,-0.9406855499355884,0.625,7.0,8.4375,-0.06005859375,0.66162109375,0.7958984375,-0.04376121488312369,-0.002624452217537404,-0.3363571202522938,-0.9407135355559071,0.4375,6.9375,8.5625,-0.07080078125,0.63330078125,0.7587890625,9.0,6.0,4.0,6.0,3.0,1.0,2.0,7.0,9.0,7.0,4.0,8.0,3.0,1.0,2.0,7.0,-2.0,-2.0,-2.0,-2.0,-2.0,-2.0,-2.0,-2.0,-2.0,-2.0,-2.0,-2.0,-2.0,-2.0,-2.0,-2.0,-2.0,-2.0,-2.0,-2.0,-2.0,-2.0,-2.0,-2.0,-2.0,-2.0,-2.0,-2.0,-2.0,-2.0,-2.0,-2.0,-2.0,-2.0,-2.0,-2.0
0.7186875908834132,0.6680852456445522,0.14448220890275515,0.12757406700750243,6.5625,5.375,4.5,-0.02294921875,0.88720703125,0.09814453125,0.7193944212725056,0.6675731194177325,0.14435498102065805,0.1264097952193585,15.1875,-1.1875,2.0625,-0.03662109375,0.9677734375,0.0908203125,13.0,10.0,8.0,7.0,4.0,5.0,11.0,15.0,12.0,10.0,8.0,6.0,4.0,5.0,11.0,14.0,-0.04022122319063465,-0.001037573284128663,-0.33715028361921967,-0.940590698923931,4.1875,6.375,9.1875,-0.0341796875,0.6484375,0.81689453125,-0.0421120501820253,-0.0015868308764241418,-0.33665227362906025,-0.9406855499355884,0.625,7.0,8.4375,-0.06005859375,0.66162109375,0.7958984375,8.0,6.0,4.0,6.0,3.0,1.0,2.0,6.0,9.0,6.0,4.0,6.0,3.0,1.0,2.0,7.0,-2.0,-2.0,-2.0,-2.0,-2.0,-2.0,-2.0,-2.0,-2.0,-2.0,-2.0,-2.0,-2.0,-2.0,-2.0,-2.0,-2.0,-2.0,-2.0,-2.0,-2.0,-2.0,-2.0,-2.0,-2.0,-2.0,-2.0,-2.0,-2.0,-2.0,-2.0,-2.0,-2.0,-2.0,-2.0,-2.0
0.7170863753304432,0.6692928247785419,0.14478454905378033,0.1298910288307102,10.4375,10.875,7.625,0.00927734375,0.91259765625,0.072265625,0.7186875908834132,0.6680852456445522,0.14448220890275515,0.12757406700750243,6.5625,5.375,4.5,-0.02294921875,0.88720703125,0.09814453125,13.0,9.0,8.0,7.0,5.0,5.0,12.0,15.0,13.0,10.0,8.0,7.0,4.0,5.0,11.0,15.0,-0.03802348283968631,-0.0006713616552753602,-0.33812214274777236,-0.9403335475297705,8.0625,6.1875,11.4375,-0.0283203125,0.623046875,0.8134765625,-0.04022122319063465,-0.001037573284128663,-0.33715028361921967,-0.940590698923931,4.1875,6.375,9.1875,-0.0341796875,0.6484375,0.81689453125,9.0,6.0,4.0,6.0,3.0,1.0,2.0,6.0,8.0,6.0,4.0,6.0,3.0,1.0,2.0,6.0,-2.0,-2.0,-2.0,-2.0,-2.0,-2.0,-2.0,-2.0,-2.0,-2.0,-2.0,-2.0,-2.0,-2.0,-2.0,-2.0,-2.0,-2.0,-2.0,-2.0,-2.0,-2.0,-2.0,-2.0,-2.0,-2.0,-2.0,-2.0,-2.0,-2.0,-2.0,-2.0,-2.0,-2.0,-2.0,-2.0
0.7141839660017776,0.6711534817669896,0.1483788754252048,0.1322042962447526,23.5,24.25,5.75,-0.12109375,0.8935546875,0.1064453125,0.7170863753304432,0.6692928247785419,0.14478454905378033,0.1298910288307102,10.4375,10.875,7.625,0.00927734375,0.91259765625,0.072265625,13.0,10.0,8.0,7.0,5.0,6.0,13.0,15.0,13.0,9.0,8.0,7.0,5.0,5.0,12.0,15.0,-0.03558222081358797,-0.00024413187522187287,-0.3400757021840689,-0.939724620697794,13.8125,6.5625,13.0,-0.04248046875,0.6201171875,0.79443359375,-0.03802348283968631,-0.0006713616552753602,-0.33812214274777236,-0.9403335475297705,8.0625,6.1875,11.4375,-0.0283203125,0.623046875,0.8134765625,9.0,6.0,4.0,5.0,2.0,1.0,2.0,7.0,9.0,6.0,4.0,6.0,3.0,1.0,2.0,6.0,-2.0,-2.0,-2.0,-2.0,-2.0,-2.0,-2.0,-2.0,-2.0,-2.0,-2.0,-2.0,-2.0,-2.0,-2.0,-2.0,-2.0,-2.0,-2.0,-2.0,-2.0,-2.0,-2.0,-2.0,-2.0,-2.0,-2.0,-2.0,-2.0,-2.0,-2.0,-2.0,-2.0,-2.0,-2.0,-2.0
0.7089568888320157,0.6748366218619686,0.15436521496824518,0.13471096458478335,35.1875,35.0625,7.0,-0.21240234375,0.90380859375,0.00244140625,0.7141839660017776,0.6711534817669896,0.1483788754252048,0.1322042962447526,23.5,24.25,5.75,-0.12109375,0.8935546875,0.1064453125,13.0,8.0,8.0,7.0,5.0,5.0,13.0,14.0,13.0,10.0,8.0,7.0,5.0,6.0,13.0,15.0,-0.033202580586223523,-6.103415548938148e-05,-0.34295091969483454,-0.9387663455821765,20.4375,5.8125,12.6875,-0.03076171875,0.63134765625,0.8203125,-0.03558222081358797,-0.00024413187522187287,-0.3400757021840689,-0.939724620697794,13.8125,6.5625,13.0,-0.04248046875,0.6201171875,0.79443359375,9.0,6.0,3.0,3.0,2.0,1.0,2.0,7.0,9.0,6.0,4.0,5.0,2.0,1.0,2.0,7.0,-2.0,-2.0,-2.0,-2.0,-2.0,-2.0,-2.0,-2.0,-2.0,-2.0,-2.0,-2.0,-2.0,-2.0,-2.0,-2.0,-2.0,-2.0,-2.0,-2.0,-2.0,-2.0,-2.0,-2.0,-2.0,-2.0,-2.0,-2.0,-2.0,-2.0,-2.0,-2.0,-2.0,-2.0,-2.0,-2.0
0.7014988328648738,0.681295568819083,0.15729248170997823,0.13782166228216175,33.0,25.0,8.0,0.02734375,1.142578125,-0.2802734375,0.7089568888320157,0.6748366218619686,0.15436521496824518,0.13471096458478335,35.1875,35.0625,7.0,-0.21240234375,0.90380859375,0.00244140625,14.0,9.0,8.0,6.0,5.0,5.0,12.0,14.0,13.0,8.0,8.0,7.0,5.0,5.0,13.0,14.0,-0.030942730628683742,-0.00018309308064309905,-0.3467782947380296,-0.9374365728926671,25.75,5.5625,11.0625,-0.0009765625,0.669921875,0.83935546875,-0.033202580586223523,-6.103415548938148e-05,-0.34295091969483454,-0.9387663455821765,20.4375,5.8125,12.6875,-0.03076171875,0.63134765625,0.8203125,8.0,6.0,2.0,3.0,2.0,1.0,2.0,6.0,9.0,6.0,3.0,3.0,2.0,1.0,2.0,7.0,-2.0,-2.0,-2.0,-2.0,-2.0,-2.0,-2.0,-2.0,-2.0,-2.0,-2.0,-2.0,-2.0,-2.0,-2.0,-2.0,-2.0,-2.0,-2.0,-2.0,-2.0,-2.0,-2.0,-2.0,-2.0,-2.0,-2.0,-2.0,-2.0,-2.0,-2.0,-2.0,-2.0,-2.0,-2.0,-2.0
0.7010828308806177,0.6805130142336764,0.15943133852169367,0.14130304313848424,13.875,23.375,10.1875,-0.09912109375,0.95751953125,0.2607421875,0.7014988328648738,0.681295568819083,0.15729248170997823,0.13782166228216175,33.0,25.0,8.0,0.02734375,1.142578125,-0.2802734375,14.0,8.0,8.0,6.0,5.0,5.0,12.0,13.0,14.0,9.0,8.0,6.0,5.0,5.0,12.0,14.0,-0.02911202564124974,-0.0002441260011844842,-0.3511752527038805,-0.9358570255407201,21.375,6.1875,7.6875,0.01708984375,0.8095703125,0.80908203125,-0.030942730628683742,-0.00018309308064309905,-0.3467782947380296,-0.9374365728926671,25.75,5.5625,11.0625,-0.0009765625,0.669921875,0.83935546875,8.0,7.0,3.0,4.0,2.0,1.0,2.0,7.0,8.0,6.0,2.0,3.0,2.0,1.0,2.0,6.0,-2.0,-2.0,-2.0,-2.0,-2.0,-2.0,-2.0,-2.0,-2.0,-2.0,-2.0,-2.0,-2.0,-2.0,-2.0,-2.0,-2.0,-2.0,-2.0,-2.0,-2.0,-2.0,-2.0,-2.0,-2.0,-2.0,-2.0,-2.0,-2.0,-2.0,-2.0,-2.0,-2.0,-2.0,-2.0,-2.0
0.6979861429458455,0.6838249898926373,0.1567493148303394,0.14362583247499558,6.6875,-1.6875,5.375,0.2509765625,1.291015625,-0.18017578125,0.7010828308806177,0.6805130142336764,0.15943133852169367,0.14130304313848424,13.875,23.375,10.1875,-0.09912109375,0.95751953125,0.2607421875,13.0,8.0,7.0,5.0,4.0,4.0,11.0,12.0,14.0,8.0,8.0,6.0,5.0,5.0,12.0,13.0,-0.02929500480324001,-0.0012816564601417504,-0.35392027677914334,-0.93481580952339,2.5625,-5.5625,0.625,-0.01904296875,0.92822265625,0.744140625,-0.02911202564124974,-0.0002441260011844842,-0.3511752527038805,-0.9358570255407201,21.375,6.1875,7.6875,0.01708984375,0.8095703125,0.80908203125,8.0,6.0,3.0,4.0,3.0,1.0,2.0,6.0,8.0,7.0,3.0,4.0,2.0,1.0,2.0,7.0,-2.0,-2.0,-2.0,-2.0,-2.0,-2.0,-2.0,-2.0,-2.0,-2.0,-2.0,-2.0,-2.0,-2.0,-2.0,-2.0,-2.0,-2.0,-2.0,-2.0,-2.0,-2.0,-2.0,-2.0,-2.0,-2.0,-2.0,-2.0,-2.0,-2.0,-2.0,-2.0,-2.0,-2.0,-2.0,-2.0
0.693347681855363,0.688769719346414,0.15668839680629604,0.14252723277861368,-1.3125,-5.0625,5.5,-0.0439453125,1.1455078125,-0.56787109375,0.6979861429458455,0.6838249898926373,0.1567493148303394,0.14362583247499558,6.6875,-1.6875,5.375,0.2509765625,1.291015625,-0.18017578125,14.0,8.0,7.0,5.0,3.0,4.0,10.0,10.0,13.0,8.0,7.0,5.0,4.0,4.0,11.0,12.0,-0.03192037484748447,-0.0048216244989508095,-0.35326028607502896,-0.9349679202459171,-21.9375,-23.5625,-7.875,0.00146484375,0.94775390625,0.67431640625,-0.02929500480324001,-0.0012816564601417504,-0.35392027677914334,-0.93481580952339,2.5625,-5.5625,0.625,-0.01904296875,0.92822265625,0.744140625,7.0,6.0,3.0,6.0,3.0,1.0,2.0,5.0,8.0,6.0,3.0,4.0,3.0,1.0,2.0,6.0,-2.0,-2.0,-2.0,-2.0,-2.0,-2.0,-2.0,-2.0,-2.0,-2.0,-2.0,-2.0,-2.0,-2.0,-2.0,-2.0,-2.0,-2.0,-2.0,-2.0,-2.0,-2.0,-2.0,-2.0,-2.0,-2.0,-2.0,-2.0,-2.0,-2.0,-2.0,-2.0,-2.0,-2.0,-2.0,-2.0
0.6948692979159614,0.6869342128202942,0.157725076055415,0.14283153172200894,-25.25,5.0,3.9375,-0.16259765625,0.97900390625,-0.17041015625,0.693347681855363,0.688769719346414,0.15668839680629604,0.14252723277861368,-1.3125,-5.0625,5.5,-0.0439453125,1.1455078125,-0.56787109375,13.0,7.0,7.0,5.0,3.0,4.0,9.0,9.0,14.0,8.0,7.0,5.0,3.0,4.0,10.0,10.0,-0.036557604846287325,-0.0104363112332473,-0.34952487972401924,-0.9361554269402359,-47.375,-34.5625,-18.8125,0.1044921875,0.9658203125,0.55810546875,-0.03192037484748447,-0.0048216244989508095,-0.35326028607502896,-0.9349679202459171,-21.9375,-23.5625,-7.875,0.00146484375,0.94775390625,0.67431640625,7.0,6.0,3.0,9.0,5.0,2.0,2.0,6.0,7.0,6.0,3.0,6.0,3.0,1.0,2.0,5.0,-2.0,-2.0,-2.0,-2.0,-2.0,-2.0,-2.0,-2.0,-2.0,-2.0,-2.0,-2.0,-2.0,-2.0,-2.0,-2.0,-2.0,-2.0,-2.0,-2.0,-2.0,-2.0,-2.0,-2.0,-2.0,-2.0,-2.0,-2.0,-2.0,-2.0,-2.0,-2.0,-2.0,-2.0,-2.0,-2.0
0.6965696445979163,0.6839347062495313,0.15876074707318438,0.14771280581203622,-42.875,23.9375,-7.0,0.2333984375,1.29931640625,-0.27197265625,0.6948692979159614,0.6869342128202942,0.157725076055415,0.14283153172200894,-25.25,5.0,3.9375,-0.16259765625,0.97900390625,-0.17041015625,13.0,7.0,7.0,5.0,3.0,3.0,9.0,9.0,13.0,7.0,7.0,5.0,3.0,4.0,9.0,9.0,-0.04382213414097169,-0.016173907447573115,-0.3430699387275792,-0.9381476655722505,-70.9375,-37.625,-34.3125,0.15869140625,1.0205078125,0.48046875,-0.036557604846287325,-0.0104363112332473,-0.34952487972401924,-0.9361554269402359,-47.375,-34.5625,-18.8125,0.1044921875,0.9658203125,0.55810546875,7.0,6.0,4.0,13.0,6.0,2.0,3.0,6.0,7.0,6.0,3.0,9.0,5.0,2.0,2.0,6.0,-2.0,-2.0,-2.0,-2.0,-2.0,-2.0,-2.0,-2.0,-2.0,-2.0,-2.0,-2.0,-2.0,-2.0,-2.0,-2.0,-2.0,-2.0,-2.0,-2.0,-2.0,-2.0,-2.0,-2.0,-2.0,-2.0,-2.0,-2.0,-2.0,-2.0,-2.0,-2.0,-2.0,-2.0,-2.0,-2.0
0.7003755708204851,0.6773023648094912,0.16169556275958383,0.15681234455619888,-66.75,49.9375,-14.6875,0.4140625,1.22802734375,-0.23291015625,0.6965696445979163,0.6839347062495313,0.15876074707318438,0.14771280581203622,-42.875,23.9375,-7.0,0.2333984375,1.29931640625,-0.27197265625,13.0,7.0,7.0,5.0,3.0,3.0,9.0,9.0,13.0,7.0,7.0,5.0,3.0,3.0,9.0,9.0,-0.05450013850240183,-0.021360636591086946,-0.3359722983826675,-0.9400511011786064,-76.5,-43.125,-52.0,0.1328125,1.04150390625,0.48681640625,-0.04382213414097169,-0.016173907447573115,-0.3430699387275792,-0.9381476655722505,-70.9375,-37.625,-34.3125,0.15869140625,1.0205078125,0.48046875,7.0,7.0,5.0,15.0,7.0,2.0,3.0,6.0,7.0,6.0,4.0,13.0,6.0,2.0,3.0,6.0,-2.0,-2.0,-2.0,-2.0,-2.0,-2.0,-2.0,-2.0,-2.0,-2.0,-2.0,-2.0,-2.0,-2.0,-2.0,-2.0,-2.0,-2.0,-2.0,-2.0,-2.0,-2.0,-2.0,-2.0,-2.0,-2.0,-2.0,-2.0,-2.0,-2.0,-2.0,-2.0,-2.0,-2.0,-2.0,-2.0
0.7046697759382358,0.6679256265129592,0.16870569603233293,0.16986539510057255,-78.5,84.125,-18.6875,0.431640625,1.1328125,-0.19677734375,0.7003755708204851,0.6773023648094912,0.16169556275958383,0.15681234455619888,-66.75,49.9375,-14.6875,0.4140625,1.22802734375,-0.23291015625,13.0,7.0,7.0,4.0,3.0,3.0,9.0,9.0,13.0,7.0,7.0,5.0,3.0,3.0,9.0,9.0,-0.06823451789520397,-0.026060947353534973,-0.3278064361494996,-0.9419170972063354,-70.9375,-47.9375,-68.5,0.11376953125,0.8486328125,0.5400390625,-0.05450013850240183,-0.021360636591086946,-0.3359722983826675,-0.9400511011786064,-76.5,-43.125,-52.0,0.1328125,1.04150390625,0.48681640625,7.0,6.0,5.0,17.0,8.0,2.0,3.0,6.0,7.0,7.0,5.0,15.0,7.0,2.0,3.0,6.0,-2.0,-2.0,-2.0,-2.0,-2.0,-2.0,-2.0,-2.0,-2.0,-2.0,-2.0,-2.0,-2.0,-2.0,-2.0,-2.0,-2.0,-2.0,-2.0,-2.0,-2.0,-2.0,-2.0,-2.0,-2.0,-2.0,-2.0,-2.0,-2.0,-2.0,-2.0,-2.0,-2.0,-2.0,-2.0,-2.0
0.708244387486252,0.6572761841292736,0.18354657184962161,0.18079978244714973,-56.625,109.0,-33.8125,0.4228515625,1.03564453125,-0.14501953125,0.7046697759382358,0.6679256265129592,0.16870569603233293,0.16986539510057255,-78.5,84.125,-18.6875,0.431640625,1.1328125,-0.19677734375,14.0,8.0,6.0,4.0,3.0,3.0,7.0,7.0,13.0,7.0,7.0,4.0,3.0,3.0,9.0,9.0,-0.0842853955722203,-0.03167568450541806,-0.32035774175132825,-0.9430077096208369,-54.6875,-54.625,-81.125,0.15576171875,0.64306640625,0.5390625,-0.06823451789520397,-0.026060947353534973,-0.3278064361494996,-0.9419170972063354,-70.9375,-47.9375,-68.5,0.11376953125,0.8486328125,0.5400390625,7.0,7.0,5.0,18.0,8.0,2.0,3.0,6.0,7.0,6.0,5.0,17.0,8.0,2.0,3.0,6.0,-2.0,-2.0,-2.0,-2.0,-2.0,-2.0,-2.0,-2.0,-2.0,-2.0,-2.0,-2.0,-2.0,-2.0,-2.0,-2.0,-2.0,-2.0,-2.0,-2.0,-2.0,-2.0,-2.0,-2.0,-2.0,-2.0,-2.0,-2.0,-2.0,-2.0,-2.0,-2.0,-2.0,-2.0,-2.0,-2.0
0.7070817919941058,0.650009841414471,0.20509278497066605,0.18830691715312642,-13.5625,125.0,-65.75,0.45068359375,1.0029296875,-0.080078125,0.708244387486252,0.6572761841292736,0.18354657184962161,0.18079978244714973,-56.625,109.0,-33.8125,0.4228515625,1.03564453125,-0.14501953125,12.0,8.0,5.0,3.0,2.0,3.0,6.0,7.0,14.0,8.0,6.0,4.0,3.0,3.0,7.0,7.0,-0.10131224369740584,-0.037961575650473756,-0.31943872500736276,-0.9414104572484849,-13.1875,-53.25,-90.75,0.23193359375,0.66162109375,0.5947265625,-0.0842853955722203,-0.03167568450541806,-0.32035774175132825,-0.9430077096208369,-54.6875,-54.625,-81.125,0.15576171875,0.64306640625,0.5390625,6.0,6.0,6.0,19.0,9.0,2.0,2.0,5.0,7.0,7.0,5.0,18.0,8.0,2.0,3.0,6.0,-2.0,-2.0,-2.0,-2.0,-2.0,-2.0,-2.0,-2.0,-2.0,-2.0,-2.0,-2.0,-2.0,-2.0,-2.0,-2.0,-2.0,-2.0,-2.0,-2.0,-2.0,-2.0,-2.0,-2.0,-2.0,-2.0,-2.0,-2.0,-2.0,-2.0,-2.0,-2.0,-2.0,-2.0,-2.0,-2.0
0.7007821510028678,0.6463969148262669,0.23286158924100173,0.19196584486577992,33.5,138.0625,-95.625,0.4794921875,0.9150390625,-0.005859375,0.7070817919941058,0.650009841414471,0.20509278497066605,0.18830691715312642,-13.5625,125.0,-65.75,0.45068359375,1.0029296875,-0.080078125,12.0,7.0,5.0,3.0,2.0,2.0,5.0,6.0,12.0,8.0,5.0,3.0,2.0,3.0,6.0,7.0,-0.11919547420494178,-0.04479747980871852,-0.3248732765964696,-0.9371461886415161,27.0625,-54.0625,-98.1875,0.2470703125,0.68115234375,0.6298828125,-0.10131224369740584,-0.037961575650473756,-0.31943872500736276,-0.9414104572484849,-13.1875,-53.25,-90.75,0.23193359375,0.66162109375,0.5947265625,6.0,6.0,6.0,20.0,9.0,2.0,2.0,5.0,6.0,6.0,6.0,19.0,9.0,2.0,2.0,5.0,-2.0,-2.0,-2.0,-2.0,-2.0,-2.0,-2.0,-2.0,-2.0,-2.0,-2.0,-2.0,-2.0,-2.0,-2.0,-2.0,-2.0,-2.0,-2.0,-2.0,-2.0,-2.0,-2.0,-2.0,-2.0,-2.0,-2.0,-2.0,-2.0,-2.0,-2.0,-2.0,-2.0,-2.0,-2.0,-2.0
0.6910922612977285,0.6443357984683644,0.2632645224321765,0.19471686217450573,56.9375,147.875,-103.5,0.4716796875,0.79296875,0.0146484375,0.7007821510028678,0.6463969148262669,0.23286158924100173,0.19196584486577992,33.5,138.0625,-95.625,0.4794921875,0.9150390625,-0.005859375,11.0,7.0,5.0,3.0,1.0,2.0,4.0,6.0,12.0,7.0,5.0,3.0,2.0,2.0,5.0,6.0,-0.13866928565016082,-0.05139064195309657,-0.3321471181814151,-0.9315621949288752,47.3125,-64.1875,-101.0,0.27587890625,0.6435546875,0.62353515625,-0.11919547420494178,-0.04479747980871852,-0.3248732765964696,-0.9371461886415161,27.0625,-54.0625,-98.1875,0.2470703125,0.68115234375,0.6298828125,6.0,6.0,7.0,22.0,10.0,2.0,2.0,5.0,6.0,6.0,6.0,20.0,9.0,2.0,2.0,5.0,-2.0,-2.0,-2.0,-2.0,-2.0,-2.0,-2.0,-2.0,-2.0,-2.0,-2.0,-2.0,-2.0,-2.0,-2.0,-2.0,-2.0,-2.0,-2.0,-2.0,-2.0,-2.0,-2.0,-2.0,-2.0,-2.0,-2.0,-2.0,-2.0,-2.0,-2.0,-2.0,-2.0,-2.0,-2.0,-2.0
0.6812054418659499,0.6409190985297916,0.2936630269549359,0.1973420424330301,52.125,148.8125,-105.1875,0.4326171875,0.77978515625,-0.02001953125,0.6910922612977285,0.6443357984683644,0.2632645224321765,0.19471686217450573,56.9375,147.875,-103.5,0.4716796875,0.79296875,0.0146484375,10.0,6.0,5.0,3.0,1.0,2.0,3.0,6.0,11.0,7.0,5.0,3.0,1.0,2.0,4.0,6.0,-0.1574063616750794,-0.06396350020763211,-0.34044695053260676,-0.9247852625439329,55.75,-83.75,-96.125,0.275390625,0.63623046875,0.60498046875,-0.13866928565016082,-0.05139064195309657,-0.3321471181814151,-0.9315621949288752,47.3125,-64.1875,-101.0,0.27587890625,0.6435546875,0.62353515625,5.0,5.0,7.0,24.0,11.0,2.0,2.0,4.0,6.0,6.0,7.0,22.0,10.0,2.0,2.0,5.0,-2.0,-2.0,-2.0,-2.0,-2.0,-2.0,-2.0,-2.0,-2.0,-2.0,-2.0,-2.0,-2.0,-2.0,-2.0,-2.0,-2.0,-2.0,-2.0,-2.0,-2.0,-2.0,-2.0,-2.0,-2.0,-2.0,-2.0,-2.0,-2.0,-2.0,-2.0,-2.0,-2.0,-2.0,-2.0,-2.0
0.6724063795899086,0.6355998212300034,0.3228966728422854,0.19904840267272075,42.1875,141.125,-107.9375,0.32763671875,0.81103515625,0.02490234375,0.6812054418659499,0.6409190985297916,0.2936630269549359,0.1973420424330301,52.125,148.8125,-105.1875,0.4326171875,0.77978515625,-0.02001953125,10.0,6.0,5.0,3.0,1.0,1.0,3.0,6.0,10.0,6.0,5.0,3.0,1.0,2.0,3.0,6.0,-0.17736367643307696,-0.07775682167093602,-0.34654884885994874,-0.9178234570545807,49.6875,-105.75,-90.4375,0.27587890625,0.67041015625,0.64111328125,-0.1574063616750794,-0.06396350020763211,-0.34044695053260676,-0.9247852625439329,55.75,-83.75,-96.125,0.275390625,0.63623046875,0.60498046875,5.0,5.0,8.0,25.0,12.0,2.0,2.0,4.0,5.0,5.0,7.0,24.0,11.0,2.0,2.0,4.0,-2.0,-2.0,-2.0,-2.0,-2.0,-2.0,-2.0,-2.0,-2.0,-2.0,-2.0,-2.0,-2.0,-2.0,-2.0,-2.0,-2.0,-2.0,-2.0,-2.0,-2.0,-2.0,-2.0,-2.0,-2.0,-2.0,-2.0,-2.0,-2.0,-2.0,-2.0,-2.0,-2.0,-2.0,-2.0,-2.0
0.6648307580333265,0.6288180746657482,0.34920095177273786,0.20160998841205266,29.25,133.125,-95.5625,0.17529296875,0.7099609375,0.12890625,0.6724063795899086,0.6355998212300034,0.3228966728422854,0.19904840267272075,42.1875,141.125,-107.9375,0.32763671875,0.81103515625,0.02490234375,8.0,5.0,5.0,3.0,1.0,1.0,3.0,6.0,10.0,6.0,5.0,3.0,1.0,1.0,3.0,6.0,-0.19750570092716377,-0.09417530795136393,-0.34703875632628345,-0.9119685362341412,22.25,-125.3125,-82.1875,0.28955078125,0.6162109375,0.68359375,-0.17736367643307696,-0.07775682167093602,-0.34654884885994874,-0.9178234570545807,49.6875,-105.75,-90.4375,0.27587890625,0.67041015625,0.64111328125,5.0,5.0,8.0,25.0,12.0,2.0,2.0,4.0,5.0,5.0,8.0,25.0,12.0,2.0,2.0,4.0,-2.0,-2.0,-2.0,-2.0,-2.0,-2.0,-2.0,-2.0,-2.0,-2.0,-2.0,-2.0,-2.0,-2.0,-2.0,-2.0,-2.0,-2.0,-2.0,-2.0,-2.0,-2.0,-2.0,-2.0,-2.0,-2.0,-2.0,-2.0,-2.0,-2.0,-2.0,-2.0,-2.0,-2.0,-2.0,-2.0
0.6582638914654683,0.6216394167919445,0.37143321398065415,0.2056464252918363,16.25,120.9375,-74.0,0.00830078125,0.587890625,0.1259765625,0.6648307580333265,0.6288180746657482,0.34920095177273786,0.20160998841205266,29.25,133.125,-95.5625,0.17529296875,0.7099609375,0.12890625,7.0,5.0,5.0,3.0,1.0,1.0,3.0,6.0,8.0,5.0,5.0,3.0,1.0,1.0,3.0,6.0,-0.21666268554490117,-0.11333594564982577,-0.3425711701305719,-0.9071147873954553,-1.9375,-143.25,-67.625,0.26220703125,0.61328125,0.705078125,-0.19750570092716377,-0.09417530795136393,-0.34703875632628345,-0.9119685362341412,22.25,-125.3125,-82.1875,0.28955078125,0.6162109375,0.68359375,5.0,5.0,8.0,27.0,13.0,2.0,2.0,4.0,5.0,5.0,8.0,25.0,12.0,2.0,2.0,4.0,-2.0,-2.0,-2.0,-2.0,-2.0,-2.0,-2.0,-2.0,-2.0,-2.0,-2.0,-2.0,-2.0,-2.0,-2.0,-2.0,-2.0,-2.0,-2.0,-2.0,-2.0,-2.0,-2.0,-2.0,-2.0,-2.0,-2.0,-2.0,-2.0,-2.0,-2.0,-2.0,-2.0,-2.0,-2.0,-2.0
