0,1,2,3,4,5,6,7,8,9,10,11,12,13,14,15,16,17,18,19,20,21,22,23,24,25,26,27,28,29,30,31,32,33,34,35,36,37,38,39,40,41,42,43,44,45,46,47,48,49,50,51,52,53,54,55,56,57,58,59,60,61,62,63,64,65,66,67,68,69,70,71,72,73,74,75,76,77,78,79,80,81,82,83,84,85,86,87,88,89,90,91,92,93,94,95,96,97,98,99,100,101,102,103,104,105,106,107
6863.675921691723,-412.1811802428944,359.3736422537277,-1845.8037240720876,-3696.6736095001074,-717.9468371509429,-1555.9252992349332,-2995.7988300878214,1224.156068134737,9735.958366603807,6807.097397506927,-513.0333559721453,400.03538873130674,-1942.663092335326,-4229.942180663785,-872.235459500956,-1776.4629055165522,-2681.435757258913,2223.0365983516635,9877.283077367556,-3669.8210593470853,-4577.2786354887685,-2437.9234512300154,1160.8802040864266,2884.3745705776146,1184.4582814301743,-2903.781436235046,-2683.4002345131858,-3831.6042672287185,-4676.169307845017,-2535.3791730199036,1176.7855875965397,2928.5337267589603,1187.9760952418997,-3035.8084635056402,-2860.859681866249,-157029.62305369854,-166421.4780686569,-71776.32688924664,-23142.113532947304,71538.3848738867,7415.41715383473,139988.7334856274,68077.37546542486,-39089.82352299821,164316.30450777116,-156728.1842317697,-167404.67671018775,-71489.08599709652,-22087.502877309933,64026.71325769004,6853.326216654804,144352.86997117026,71021.11573776834,-54729.60905696254,186154.77477369097,-25715.36527657938,-3319.8247437895634,25559.677355274696,-6844.747812625755,7899.771654875512,37797.119603479856,-2558.611089261115,6843.210805359784,56939.22850520336,101793.64557204953,48799.115349943226,2517.2151714895085,18843.763817756106,60860.66746813058,34664.476153404474,51233.36912473754,50062.82318562836,-89803.69232103626,16804.999056375513,36344.22300871753,-22054.086592019692,-153825.05409064132,104493.70764230232,20828.881080136183,20828.881148416433,53476.74590220673,-83561.23473388476,18593.73337959152,37721.15366934515,-13965.668215903373,-148789.53893341825,103396.14202944732,20877.488185939324,20877.488405518907,343663.4342881683,8477.783926476808,-246354.361594003,52199.796864758544,-240819.812704841,-20960.884368929073,175182.33551175834,-1.0036798276724057,-1.0000046091621115,344089.3628086673,9820.955869488173,-245282.47454482634,52626.11626517588,-240994.24406301614,-21838.21660333919,173731.75643114914,-0.9998758135097547,-4.677249409764349
7560.185147147912,-464.78603451986527,362.07792113916304,-2105.4807096001073,-4145.7952375386385,-787.3158982230058,-1663.4232295644388,-3273.0766936396194,1349.5476028261864,10709.827340692464,7497.64810160155,-576.5676775821339,405.5210182336343,-2211.2868306584132,-4744.808785665921,-961.9015442224444,-1900.240979192509,-2925.63281874132,2453.509544874348,10867.543638766168,-3995.4544023586914,-5140.644105443336,-2758.243180769008,1302.44252109555,3296.171929589883,1421.966417895603,-3134.5319869441873,-2881.9813229530037,-4176.731669713663,-5252.313024477777,-2868.534879881234,1319.621488007911,3345.461050095717,1426.1868125112298,-3282.7333883453766,-3082.1266509285947,-170577.60718443996,-181144.16044365108,-78321.9934308921,-25065.589182393847,78549.72291358603,8250.18606748844,153511.6881909955,74128.37933464655,-42836.31004034638,180425.20610381823,-170232.99935650616,-182217.4657682162,-78021.11395987766,-24023.873155353744,70311.38068687875,7637.213340684665,158110.22166210721,77508.93015213161,-59990.47351740962,204308.0619594046,-29032.437569435147,-3606.0669216459573,28509.229392793502,-7780.131539856261,8661.4128701169,42329.60148710018,-2957.332914364759,7423.514531224133,63505.35293206468,114098.02323419263,54584.16887480412,2793.422532962279,20974.086828804775,68203.16874910277,38737.17055226922,57121.098846200024,56840.07447009179,-101877.67463575886,19005.83716973068,41291.82874904968,-25067.289714444054,-174560.06762173478,118510.76662447091,23582.013002723834,23582.013080334465,60719.581336739255,-94776.79544308975,21046.03629272308,42852.3567698399,-15862.55524581972,-168837.8643957637,117262.46392163732,23637.271627954196,23637.271877410505,388511.6499557261,16443.967501479565,-279567.3848742578,62504.81476999155,-272165.58372053184,-20192.100670362353,197199.8472299218,-1.0042389404245846,-1.0000053957143242,388981.5393867449,17950.36382189997,-278383.57263331785,63012.953971100236,-272372.48082215263,-21219.97087401102,195576.68741149534,-0.999858627479068,-5.309714486679002
12410.34088405229,-850.3529148474165,547.5369145973677,-3423.712272552354,-6621.106233682779,-1321.5545255986965,-2882.596589051252,-5467.851978296341,2325.7851094781113,17670.13531082351,12308.181953477737,-1033.465614745829,623.7078085980052,-3601.3857328065824,-7569.410753978316,-1602.2175187300527,-3268.1778748151346,-4894.362120118262,4145.305739693462,17922.214848290623,-6780.188387789376,-8055.317085504225,-4238.369710223394,2041.4172040800863,4873.370447650866,1807.0346180087859,-5592.9869953582165,-5122.073414668196,-7064.828044860781,-8226.10324750964,-4405.92258023982,2073.8976108305683,4953.648927145998,1814.1073899303847,-5827.516927788034,-5434.184997926543,-292635.35913974565,-309078.821314759,-132802.07601242512,-43323.06756547497,131046.47815894701,13299.923262526472,256908.25225337464,126148.31642591253,-71813.2728300886,300903.10924758867,-292112.01112899254,-310892.0399633651,-132239.82109793782,-41137.38109725062,117272.97127920936,12263.202057305793,265329.8057535882,131213.22889300218,-100511.54145532919,341115.37361177336,-44610.97134133816,-5814.012816944296,44744.234864897386,-12487.90432227043,13527.815513001666,66144.099216659,-4353.0035007250935,12960.351595534321,99655.40990864727,177930.2933546414,85849.03682309466,4539.608809886253,33274.39518903076,106684.96744098999,60573.89491136026,90394.15996762775,89753.56731225844,-160968.03511244082,30163.40430560174,65147.64934040351,-39434.60812451909,-275782.46468638687,187378.1090018668,37576.43002953593,37576.43015146868,95849.62314274054,-149831.24813904977,33326.57037988106,67624.20833978409,-25050.296006532888,-266774.75794462755,185426.20855188376,37663.19477279473,37663.19516510056,614455.2151279618,7658.548125187343,-439301.5784141555,89512.73504257099,-430739.5210130002,-41309.57864313844,314224.59958356206,-1.006501972883096,-1.0000080321714884,615229.5693591264,10073.794454686391,-437353.0538472762,90247.31172208533,-431040.1821974767,-42839.27568816121,311613.1289279963,-0.9997789280933903,-7.414817677085294
14755.902783013553,-751.5686383270579,997.8217348366368,-3623.9116386279015,-8376.721378266491,-1932.4174854703147,-3435.393344970297,-6341.142381532589,2451.634916015628,21278.516980473774,14633.71647426208,-989.9109625418041,1082.5979836172735,-3845.2715570611936,-9575.783200491942,-2293.0537080693116,-3931.108157568541,-5670.3283519495035,4633.622431177723,21562.26965572259,-7689.954701294361,-8894.075908973116,-4618.011471708984,2363.85441262414,5040.529079961595,1625.9346184754677,-6894.004763280575,-6117.83779874314,-8008.530768227354,-9079.593150042112,-4801.515599771736,2408.990552151816,5135.307837818965,1632.8077954087255,-7164.544454468981,-6469.432495112857,-373842.2750982975,-392416.479970246,-167421.563261431,-55738.22925409931,162176.7416916365,15772.04945357195,319056.23322548845,159514.52801151297,-89366.94410278271,372135.1228741384,-373261.1617623755,-394687.27458521427,-166639.49967207358,-52444.31713567241,145102.10388225637,14473.178417919738,330472.3139747252,165019.94492886067,-124999.49904180471,422382.18333761656,-48016.45931237008,-5376.8697521480335,49643.1933352589,-14618.013058849823,14333.983589008816,72970.60268461746,-4067.939367252835,16789.447263863345,110342.1154048474,196771.1733837871,96049.96489034456,5754.654814036139,37654.41881704381,118300.65845954294,67216.49769929105,101797.58175772082,95074.54414106563,-171403.17663449945,32711.539098655645,68728.78450529545,-41539.71356408312,-293065.8309914819,199818.1179044878,40385.95503793395,40385.95516645863,101510.10928652104,-159714.84965011672,35989.569562464385,71377.1249791339,-26459.722958544862,-283565.0349780024,197764.0575922082,40477.33219468507,40477.33260944444,689444.6535360598,4976.714664768901,-490030.2432056958,94706.03634812523,-480699.73060974194,-45278.75205297735,353357.2507611561,-1.007146117496834,-1.0000086602323732,690341.4771151099,7733.053486422112,-487804.0704289549,95493.17307077654,-481012.1987676966,-46911.22898155822,350433.44628624636,-0.9997538692465673,-7.9591929100453065
16198.635259136416,-786.1505093314483,1128.2373625486418,-3756.885125858205,-9324.48524245078,-2230.630827233836,-3688.801150440272,-7027.023066877175,2604.9396116213065,23453.96389815751,16064.50287816326,-1055.0546218421778,1216.0001568175016,-4000.999842836392,-10660.565957000428,-2624.972400305131,-4259.122700412169,-6306.33523289604,5004.090248078984,23764.73958250495,-8232.884170194488,-9356.112119999501,-4817.281600066577,2551.173111009795,5059.41329401496,1451.0247472991032,-7782.070439217092,-6766.616414078224,-8570.162481924312,-9548.536228136485,-5008.4542120444885,2605.6551876525727,5163.716718708417,1458.3538115813196,-8074.633248001301,-7141.477644336307,-410078.92374839983,-428952.1757770726,-182323.0379683823,-60855.24627567157,174197.41452329737,16086.4644437369,343365.71337192814,173977.44808672403,-96658.44375899316,399320.901665959,-409458.95797443145,-431369.1612285088,-181406.32067608536,-57188.2846540276,155875.10022418923,14677.793286745913,355885.5558598856,179688.1033515435,-135028.85567933225,453406.2780013746,-49550.18306895325,-4752.700651336991,52198.90173435474,-15594.080674426501,14805.48106668343,76445.71821679578,-3946.9126019723826,18846.820564147525,115845.57005217185,206543.0827390386,101250.64236458515,6452.4825198302115,39935.95540330003,124198.50888398792,70530.3098282845,107666.47461086666,98879.86240979913,-178657.5507847404,34379.05342341215,71347.47856591563,-43059.27808671537,-305221.32081407774,208435.74414910763,42347.91396153465,42347.91409474042,105554.22939434061,-166570.6095644938,37739.47222670954,74116.02980074451,-27489.239226284342,-295366.1347710282,206311.33346257024,42442.57017086447,42442.57060136846,748186.1000730242,17707.961700408046,-530768.9312538201,104165.9740736297,-518170.861507794,-39191.2739682789,382325.48754455586,-1.0077511862787945,-1.000009415044405,749165.4612751292,20726.992820994263,-528373.055091511,105036.90807670403,-518503.3907093795,-40945.56777405476,379200.534124916,-0.9997329931425587,-8.620237115312602
19832.13990358154,-956.4068156717124,1388.7132874298402,-4578.136386453719,-11457.64009362837,-2764.0072731610253,-4499.385905227431,-8607.098676496671,3188.411852504667,28734.173869363312,19667.930395292846,-1287.7631912354582,1495.1901391024685,-4877.65045781122,-13098.441453944843,-3248.9855486467413,-5198.095949209343,-7726.78206598459,6129.513041556962,29113.73775358819,-10086.32710013939,-11450.048526822906,-5892.103905263639,3127.868502526201,6173.746026833343,1756.3396438606446,-9562.745014232818,-8305.804900147137,-10499.302276718772,-11685.362348773937,-6125.962156709443,3195.053562322871,6301.729143245468,1765.2803064546995,-9921.40480959557,-8764.94696856264,-502858.4383566264,-525799.156114504,-223400.34808347328,-74581.8448592637,213110.27412126705,19556.45596339855,420161.3417105341,213200.00542419366,-118345.18256559671,488447.66102454334,-502099.6661486375,-528752.1457127004,-222268.0060470727,-70084.34445293016,190699.68280120537,17832.16610756541,435504.391193201,220165.29043499264,-165301.7193453268,554624.8941994064,-60076.37070909367,-5691.328128638655,63506.54389412837,-19061.062354170317,17952.080329892633,92938.82412225171,-4738.403328762337,23234.86337955559,140891.9009357414,251107.52758837258,123249.16375332541,7906.779221877756,48664.626696012754,151045.28424007507,85751.15333630655,131154.6398232907,120319.70280295798,-217463.88788724435,41891.425711985736,86795.66404337541,-52379.211345762866,-371472.50108282204,253732.24223653422,51564.75989945189,51564.7600614945,128439.74885888131,-202764.17691942558,45975.194166811176,90166.33366252005,-33444.369567397174,-359483.5382567842,251148.09969036843,51679.9019722429,51679.90249603945,915285.7969750843,24797.839659487137,-649181.5782468288,127954.28040162557,-633037.2777427388,-45532.34327164861,467378.6824133828,-1.0094937184383943,-1.000011534920335,916485.1802922329,28496.963117611234,-646256.4269228533,129025.72092488856,-633442.4937385055,-47677.36067624261,463569.07469946856,-0.999673294321772,-10.35136526602092
26523.903727237575,-1305.732223817554,1807.142538970778,-6087.582635405758,-15316.344200957565,-3709.5164546958,-6034.819615031629,-11526.372478250458,4264.261096961315,38498.653903517254,26304.302659569195,-1749.5437009198913,1949.7852269561013,-6488.916704141975,-17508.888708467668,-4358.081576997212,-6971.555061049062,-10348.632038251411,8201.149453387614,39005.92344634342,-13551.158946744423,-15469.566912390863,-7979.137210821036,4204.7517266957475,8473.548207231559,2510.159675500661,-12615.292582727974,-11040.802001168222,-14108.842020123668,-15789.513668987545,-8296.884215592308,4291.349341286435,8643.74929156346,2521.439106981412,-13095.836456307974,-11658.408668371394,-664469.9072098315,-695176.1509166901,-295528.004055033,-98560.6364211718,282324.8772788962,26019.67320833866,556525.5825317124,282155.7415243494,-156715.44240829605,647192.9431577037,-663464.1843275679,-699090.531877205,-294038.420515415,-92620.84652748256,252628.38105791272,23734.793123440246,576813.7627587646,291412.81294336205,-218907.37780819167,734849.1726445447,-81618.99150705946,-7430.61225279911,85763.76180214378,-25722.66658283648,24146.236751594515,125719.22084577299,-6488.374993347721,30858.960484373038,190312.15400831786,339968.78607770056,166524.60212167058,10702.882553287001,65618.51866872302,204350.30686137555,116006.17107478117,176912.11002549654,161408.388881017,-291665.79991173913,56136.42593655345,116459.93116645039,-70296.66677891788,-498260.7491500266,340277.0428790128,69120.73445605152,69120.73467354944,172306.61675185626,-271929.9804920632,61626.64167412028,120978.76489291764,-44866.89694195523,-482171.3803185688,336807.1690283506,69275.29231435858,69275.29301729031,1227169.4010676146,36475.39232932437,-871135.628534441,173504.85265733305,-848674.9434093547,-59615.60828941116,626090.9601221471,-1.0127839772334413,-1.0000155807637015,1228771.6331633546,41426.769874498335,-867229.1600511774,174956.3494928585,-849223.1855247128,-62514.30443385094,620993.2089761638,-0.9995614117580897,-13.627604248690329
32903.066125466125,-1636.3952619397471,2223.3418765246106,-7580.1813281546165,-18998.85572726805,-4600.442213525497,-7479.918534916181,-14299.388921832486,5300.492042930018,47760.8082993034,32630.666981738075,-2186.9985036289754,2400.251993587495,-8077.928870813332,-21718.41133901686,-5405.561409348929,-8639.850622072183,-12837.975813392268,10185.11728996725,48390.555685335945,-16838.73024483397,-19244.762198718014,-9931.520214261764,5223.567064205475,10575.04114989404,3158.192891017709,-15619.75894760307,-13689.726027519604,-17532.30762005544,-19643.217372958658,-10327.141746954687,5330.305569057804,10786.128575044426,3172.141533321522,-16216.518580429192,-14457.378351107895,-824421.6401536053,-862627.994498864,-366761.4017901431,-122307.60929336927,350561.4595157182,32374.579426527882,690988.8899195961,350145.75138431735,-194538.97816547117,803639.533159735,-823172.6619310367,-867490.234912081,-364917.59240390465,-114941.07364095486,313686.6515487943,29538.972114972374,716162.9882182891,361654.1642977695,-271755.6974417858,912473.6748119058,-101408.21139402087,-9328.759092042566,106484.66009119815,-31976.230317216796,29966.660525672094,156134.18492374747,-8060.92339077898,38306.241288642545,236343.14802551334,422175.2526116931,206804.27834226488,13277.753531683864,81482.41031495975,253794.07542287713,144076.40104413254,219702.08250938388,200889.9963845781,-362965.29983333556,69822.73186385071,144963.2818133343,-87517.25019934632,-620087.8954250141,423434.8896662444,85965.34507435869,85965.34534515206,214458.22959924515,-338389.3306674626,76665.23323800824,150585.1103196575,-55844.203313295286,-600058.2985582944,419113.55028121936,86157.7845140397,86157.78538912571,1523159.6951814669,45711.258316606494,-1081332.453921768,215562.6356483031,-1053279.0604995368,-73755.60674929642,777013.7492424567,-1.015876430238208,-1.0000193519966445,1525148.21640569,51856.541993080835,-1076485.4096124822,217366.2016624423,-1053959.6013474723,-77355.81867772106,770688.7867099136,-0.999455562941849,-16.685171731445845
40993.666144788906,-2047.8403883375552,2747.9250431909777,-9414.925124614354,-23634.30451992014,-5735.065139846191,-9353.41570057001,-17809.667424890526,6587.08748816375,59554.196236746386,40654.40730873627,-2733.5254801549954,2969.326231409463,-10035.731015478603,-27017.420656092287,-6737.440495785672,-10801.664954873333,-15987.559847894325,12670.992937447436,60338.12792798159,-21010.692643973216,-24065.574663262298,-12431.163736211414,6516.9506457404705,13304.024797901986,4032.8534911754286,-19351.9053863393,-17010.179925277353,-21877.693227585718,-24564.96950610893,-12926.831861074283,6647.977986368019,13566.393449021705,4049.947149097273,-20095.67667284472,-17968.49622956865,-1023278.3035122635,-1070905.338888227,-455383.7160162262,-151843.84878983023,435515.47820713633,40305.0157103571,858398.1564411415,434845.85259241384,-241627.34880814923,998482.1459262494,-1021729.9793886691,-1076950.4094156565,-453099.6552638045,-142677.14283557713,389695.9600655325,36781.081248120994,889690.4092647372,449130.1985360436,-337546.3905611113,1133703.5830548836,-126942.13035808569,-11576.450809227497,133019.0908233844,-39833.7016436736,37459.81752488149,195130.98598577944,-10112.161334324557,47449.26187747468,295259.2463367678,527733.5280612,258284.2381115984,16573.395582691977,101694.99119745677,317154.37655887374,180093.96282193938,274218.9489069519,250140.36162216208,-451960.2371010803,86935.29074598647,180504.96592551723,-108994.64133148809,-772111.870929791,527239.9819080731,107000.52963407373,107000.52997136138,267040.42916979594,-421347.1722841247,95464.93318760002,187503.3805651848,-69530.85556529804,-747167.315451087,521855.73327218567,107240.23130910419,107240.2323990309,1895700.6025070825,57628.286977656906,-1345653.0762617001,268146.90888292715,-1310348.619839285,-91024.81308804889,966878.5342361924,-1.019750922892288,-1.000024081175685,1898177.7097479554,65280.436434266194,-1339621.639116714,270390.90071772016,-1311193.9774456318,-95500.80759140845,959011.723633581,-0.9993225796296639,-20.513790946412325
45865.77298446833,-2269.9780735156064,3094.8009633143465,-10465.760384157677,-26452.337518834618,-6419.17863361608,-10483.727436581838,-19938.74267717591,7339.795897067323,66640.82076909704,45486.026411199615,-3037.0891603717,3342.5574681755775,-11160.719162476667,-30239.45140509657,-7538.454470594329,-12112.070588788416,-17901.28973048179,14145.866712995059,67517.07477370375,-23454.77546321848,-26826.522208515464,-13848.075129819852,7278.479574815274,14773.19329627017,4434.950274039791,-21698.75308312947,-19039.77822370526,-24421.65904578975,-27382.51107269937,-14400.088007365097,7426.230039998684,15066.77000768358,4454.108433378892,-22529.704383271775,-20109.22389602914,-1143648.3698464772,-1196671.5613987602,-508768.5445565166,-169632.60543370072,486191.3158362945,44846.12480645189,958368.8523048576,485875.0440110798,-269864.78662698716,1114615.1169642308,-1141918.7336392654,-1203414.9084288736,-506206.2931921887,-159391.281231492,435042.7942645211,40908.6701120328,993322.3436209837,501804.95092391584,-376958.66871234187,1265579.697756034,-141689.27865147073,-12691.584934106237,148636.16163806312,-44367.18512498762,41917.13735943585,217950.92251104323,-11259.540940523913,52999.7499857566,329861.4765230484,589594.507113469,288489.15129789547,18570.256379396335,113618.49900953729,354233.0190652446,201198.67240399704,306301.5142558775,278168.9737379432,-502719.27130807086,96789.41040573973,200689.2821914965,-121152.7897334659,-858757.8234389416,586511.1219470921,119118.98691299307,119118.98728788026,296954.30364881776,-468703.0863964103,106255.13040394433,208477.0752880693,-77314.45064318491,-831028.3030659668,580528.9099202285,119385.39057701448,119385.39178865841,2117268.93498947,63409.55967024975,-1502591.5311841988,298752.7906928663,-1463488.4000012067,-101973.5827909777,1080078.2781149407,-1.0220297874148268,-1.0000268507070582,2120037.5020408076,71959.60009968375,-1495850.1526896663,301252.8347270982,-1464431.1412010628,-106962.8011187242,1071287.9402977703,-0.9992436698545137,-22.75560176659742
43107.753261965554,-2107.5364023958055,2940.7647700611906,-9799.537184475932,-24866.14006181003,-6038.634043199811,-9853.665736548775,-18738.243932528265,6879.288616477858,62623.19600265021,42750.85478399818,-2828.7143533169465,3173.372847908278,-10452.747862148404,-28426.676754238535,-7089.734891580048,-11387.840623422637,-16824.826791240183,13273.902809560606,63446.25853660811,-22044.976064166643,-25210.296920041244,-13013.577164806173,6838.080640577229,13876.618250714253,4161.882519132592,-20409.835715942034,-17901.693664556977,-22953.429456506346,-25732.575045258603,-13532.079552003986,6977.211988987179,14152.68496530492,4180.084413954468,-21190.85663242815,-18906.84223102434,-1076809.8882973192,-1126477.0273453046,-478801.9745025961,-159674.8192200847,457185.9073669434,42042.99613995517,901294.9121715465,457278.49721992784,-253860.79449677182,1048059.3799770782,-1075184.4134288968,-1132815.1329906774,-476380.9535523554,-150022.20262844767,409091.41421260446,38338.36155576626,934206.3664454296,472224.0853408959,-354580.036331852,1190037.1032050103,-132522.08766699219,-11978.787558594964,139301.33619885912,-41409.74030442609,39445.24284728501,204112.79739012898,-10490.280114392468,49766.18431662115,309143.7645134085,552094.9065459775,270191.52443441376,17394.194100441367,106489.40879653423,331684.37804086675,188487.39593953465,287018.4644853946,260363.73522928066,-470634.9111715828,90669.2893463421,187814.53970007866,-113383.0704286433,-803884.6417851219,549102.9631217963,111522.24931490241,111522.2496657635,277946.2049424506,-438803.24974009726,99524.861199778,195105.75359372594,-72358.23735597062,-777932.9289677073,543503.8379535921,111771.57414850546,111771.57528261097,1985108.4720022345,59916.44637279049,-1408076.4421517232,279018.61068054073,-1371203.480542183,-94378.94966631435,1012663.7838523166,-1.0206137936475592,-1.0000251050567754,1987710.5375382497,67944.98476816686,-1401750.4915756574,281355.4578810458,-1372082.0553238927,-99036.57244298804,1004427.5344506858,-0.9992913814878945,-21.34710155122966
37894.42066276282,-1821.0683699130598,2642.28325566506,-8654.554495063947,-21890.58363736722,-5314.219350606159,-8636.05530122181,-16448.34207677307,6053.936279751867,54987.322529855424,37580.70379868301,-2455.5694575926473,2846.1668275866273,-9228.423954601989,-25025.02538535332,-6240.724923406491,-9979.632562977251,-14766.831395030158,11674.41227043369,55710.512755426505,-19364.39982296922,-22093.599660713262,-11394.916544697831,5999.742762243545,12081.563884371466,3566.7599551336966,-18076.511549652398,-15797.464818835173,-20160.3268502972,-22549.86509992854,-11847.911262498143,6124.338950112004,12325.219490794942,3583.5099717539656,-18763.270252963815,-16679.991849988754,-955568.3014976347,-999174.967148123,-424499.6517077695,-141672.98229950533,404829.147226075,37080.77342729455,798202.8558383186,405279.69882971334,-224878.31506024904,927891.2870271683,-954128.7740839623,-1004783.3676303923,-422342.3053469091,-133108.69524970627,362252.97411852423,33801.620334535786,827384.3380828765,418483.18136803294,-314083.61332414276,1053622.6355087273,-114921.78173745619,-10901.773193267274,121408.87457361257,-36068.47751066403,34558.27178070364,177623.9672060687,-9038.807088170384,43954.63305845567,269407.89527183824,480023.13824393426,235334.1182684463,15086.038184129646,92914.05322214794,288571.40182406525,164033.2020122618,250369.02534551852,228521.310761908,-413152.2310682838,79634.4364243869,164822.25175410096,-99518.13142490492,-705640.8349114428,482046.4595343819,97853.54878390738,97853.54909188444,243955.67118433572,-385213.54971513076,87408.19664061748,171222.2685865382,-63504.15095211144,-682863.4239167059,477130.4988966216,98072.39998777857,98072.4009833375,1740268.6083807354,52380.49217218099,-1233537.7608976709,243123.7594362945,-1201135.250144661,-81758.1609834494,887899.0806453235,-1.018027432055408,-1.0000219131673478,1742557.7003625461,59433.32185116169,-1227982.6790378073,245163.08260169518,-1201898.388180089,-85816.88611319759,880683.3322836788,-0.9993793328000855,-18.77483823925794
34957.54281724884,-1796.5200317011706,2277.6589173986463,-8203.599627127769,-20274.427546536735,-4828.319590218265,-7855.996984001572,-15187.723318979932,5643.813245283654,50693.58711811974,34667.501331366155,-2379.9167053158208,2463.526417302059,-8729.373241596386,-23180.3617602117,-5685.788554676817,-9081.97245470074,-13633.115819105415,10837.368814320853,51369.311865786185,-18111.858148002433,-20864.728298358874,-10805.3384696708,5612.355273681381,11713.505310934348,3684.518593884894,-16375.414928480288,-14503.204166212392,-18862.601782749385,-21300.102980140422,-11237.017757566096,5720.52402283103,11937.432107082048,3698.7221305324533,-17014.59916006783,-15330.35657137733,-872577.5889717973,-913571.3791148302,-388806.63232496515,-129494.19964982629,372323.4796116265,34589.69940180359,733602.1690496379,370904.5018945332,-206464.68808576517,853480.8295813547,-871232.6363533216,-918728.5041022857,-386872.81258867914,-121835.32484179735,333177.3894190343,31588.64863934829,760065.9024834877,383338.25256444694,-288450.31968634215,968931.2806274357,-109412.34027317827,-13018.704169261762,114973.55511577823,-32539.950773127806,34346.37345827197,167657.8911274024,-8868.529691390495,39330.02623529489,255165.49503355546,451977.47186577227,220962.82267933805,13160.076058078592,87068.66099309792,271443.55852271593,155167.77714116024,235095.10888123198,220564.08255018204,-398083.1343444859,76259.62114995901,159305.96771016537,-96266.36266223865,-680343.9738384769,464213.53904628434,93930.76679594273,93930.76709384708,235485.96134862595,-371014.966536193,83833.37632346213,165461.20234207227,-61346.47395534763,-658321.2373664267,459453.1240799451,94142.53348617721,94142.53444813665,1637173.022562655,42255.375139908465,-1160534.657686199,227597.96797706382,-1133252.0370677507,-82408.40507786018,837027.9387113682,-1.016965300160079,-1.0000205081599958,1639319.659397032,48878.5605015133,-1155284.7501501467,229507.4032419901,-1133973.3777411692,-86230.97005692066,830201.5647114917,-0.9994154691396536,-17.688145809453044
32684.827483346115,-1700.583237799184,2095.0255482576727,-7658.023400505789,-18845.996796808242,-4462.268744494839,-7427.761232474495,-14215.354455131263,5302.909584661092,47408.28925973313,32413.66017690646,-2242.0270128841685,2272.0222183081346,-8149.8041037035255,-21546.099851043964,-5259.0765944384275,-8572.399912669742,-12756.217988004,10156.286639301507,48039.35665080654,-16971.10314421694,-19643.76399200749,-10193.19008311184,5260.248022287644,11168.39621895247,3614.5420552393266,-15094.45149081263,-13462.486313494706,-17677.567107616902,-20055.77879815845,-10601.465837319214,5357.668712311012,11376.348500757602,3627.1054504895546,-15691.925079927738,-14238.328337475657,-808403.3321778823,-847188.5759808568,-360881.53491223365,-120075.89442198572,346669.73917555675,32570.503057270063,682792.7581793297,344378.1162172967,-191977.48034063476,794937.6078054812,-807153.6251705003,-852002.2028495634,-359112.71245511004,-112968.14707153189,310202.2736762564,29777.5773503621,707370.9194015366,356004.79905854474,-268270.4108566029,902413.3060847229,-104422.52186643283,-11923.11484020065,108843.54046576125,-30800.153329879075,32337.525284856507,159120.96047648217,-8548.45353362016,36378.674130991865,241702.7068476254,429427.82570689375,209370.6357543903,12519.566589343942,82285.20488643764,257680.664030522,147270.6529092885,222274.48297789876,207786.56293288682,-374888.8058234273,71713.4943001338,150125.55938512756,-90749.65129600721,-640784.0005795872,437101.1846563217,88361.93839388125,88361.93867474548,221853.38883085805,-349358.1524403385,78870.61231765556,155918.4348062073,-57799.63880154924,-620025.5098874966,432610.6373290632,88561.61317870405,88561.61408539362,1534938.5920969916,38299.762958257365,-1088429.5603549827,213624.64686288295,-1062970.930102946,-78612.36281722636,784721.371775343,-1.015910445199982,-1.0000192604629405,1536948.6325090285,44501.99890978063,-1083509.51885792,215414.58952510153,-1063650.2025420547,-82204.24891124501,778315.201442059,-0.9994519346203092,-16.64880950884531
20370.907325930064,-1165.5201792097416,1220.3409540847817,-5200.73075497662,-11512.652950805761,-2548.4728026680928,-4634.969346945475,-8885.06426168153,3472.4812122334306,29219.690690715215,20201.85336733926,-1489.5293791458726,1335.1682572361956,-5501.070869765954,-13164.084363526581,-3033.565930239702,-5319.5841905879515,-7964.439235519944,6481.820718594769,29620.76985142893,-10691.44641219538,-12495.293399346798,-6512.857658850368,3301.3196583980853,7280.114435400834,2486.31422248196,-9213.85044351654,-8323.090855383238,-11139.413501969486,-12759.448679198755,-6774.050456286687,3358.13645583189,7409.012492500283,2494.09724936004,-9588.159538617037,-8812.951162581512,-497439.76279849955,-523135.4260081354,-223784.12495497492,-74013.18754418065,217588.07071313157,21282.60937504175,427672.67007181194,213095.28385836093,-119868.5200641334,499303.05028207484,-496626.76255981514,-526161.6786738157,-222758.92159917732,-69865.8557276664,194698.59049633672,19544.107977003365,442541.6289033248,220824.76118590924,-167643.26909981383,566497.3671811608,-70983.7251638084,-8142.865216825201,72448.72315269042,-20216.419361363878,21669.67388361538,106510.41777023155,-6320.616146464157,22370.934137891538,161125.62373741568,287550.77052060945,139177.58858061227,7983.680448301244,54288.45399534869,172219.97098197808,98218.05340017796,147044.75065721836,138157.10241759886,-248558.67087862585,47168.95535701269,100016.09115426747,-60360.795664348865,-425376.42837399605,289698.0268613085,58737.00726452391,58737.0074510851,147492.76903288925,-231577.43654745337,51921.781187038236,103860.65786296461,-38496.27651965506,-411570.253554349,286724.2522355573,58869.645825409105,58869.64642700206,985239.2552754179,-8096.053430895275,-700807.947756827,133005.15121952211,-692110.2957158549,-76606.87313376938,507029.01246349595,-1.0101346544442293,-1.0000122751917535,986508.9105793028,-4189.304109592196,-697598.0045228255,134099.95839621764,-692569.1915111502,-78946.37367559738,502774.62296595325,-0.9996484121615554,-10.796611016928292
6821.901666258052,-416.89315389914117,352.7148648210646,-1823.7971112486182,-3826.6500146310823,-804.3640647549261,-1381.6607955436712,-3056.567826116449,1354.1333650426882,9665.478213039014,6765.89892356237,-524.6808285841007,387.2232978785273,-1919.9123443126161,-4371.58415303016,-965.1139025490484,-1582.8945343026105,-2755.0564179527105,2370.403460841091,9806.065166529634,-3634.3345547194326,-4192.91132809368,-2175.9255594553515,1112.2768462207582,2358.6439791575017,749.6550415542533,-3294.3410423083255,-2907.64378269394,-3784.252916128651,-4279.930089200577,-2261.9503762624886,1134.2054493123278,2403.7388959618675,753.2360663049844,-3422.286836347156,-3073.726076265302,-157309.61961386405,-165136.65257833913,-70680.3689179958,-22746.391327611185,67964.49914706325,6120.398919488843,133445.31995646356,66765.44503024437,-37844.92003277257,155447.75724545633,-156994.20550897566,-166024.38183437538,-70336.09214803239,-21859.504670747865,60887.40485816008,5582.9464985128825,137465.0693916337,69652.93731212633,-52799.136120381125,176106.5991360788,-23708.41798951966,-3163.28485047507,24749.814550687515,-6299.908948200454,8007.324176641138,36148.17986725711,-2288.374768369935,7572.974538238583,55268.18448278771,97277.45462636935,46944.196805981475,2575.958944511905,18484.087194593096,58129.46512933965,33209.21191558505,49989.49646369139,49352.529767906926,-88357.16040198249,16573.967765736674,35834.313651861274,-21504.978898306297,-151557.99774355468,102970.54341098746,21118.606188431877,21118.606254637823,52660.54642073892,-82325.23087022746,18238.352198615437,37208.914218337275,-13800.03610195896,-146637.75741113775,101926.03557401865,21165.65501756546,21165.655230798035,353326.408771208,-5157.952324902672,-250548.81661331214,46405.69840999087,-249533.27887697335,-28588.726520691536,182911.15703894777,-1.003567540886863,-1.0000042778512435,353779.36294231087,-3753.811832319783,-249383.58941873294,46786.11407082688,-249699.1865081551,-29410.56489738936,181363.53353148274,-0.9998740463280106,-4.439067690563908
15416.921865184726,-1009.8786325603917,700.7286337414805,-4272.619194852908,-8814.743661262588,-1872.6527913330563,-3283.3257747761972,-6724.2715117029475,2859.859470137039,22043.924903954703,15289.113829261896,-1255.5250813687517,783.2173108706543,-4495.000670229847,-10075.038381731069,-2252.8177990153126,-3749.5161360980665,-6023.561496364911,5160.591867335763,22357.284916074706,-8192.308805776498,-9622.26589098646,-5026.148416210714,2527.6940494694245,5676.20927048847,1988.0674735679322,-6936.819907658682,-6313.437352920142,-8536.930176655436,-9826.642017926466,-5228.069691641262,2569.3022820239785,5774.071236607236,1993.7935640498133,-7222.84768029812,-6689.20306076284,-374083.0510727851,-393777.9719261761,-168791.96099731326,-55315.91168536364,164627.1912902757,16104.310302485757,323155.34528050665,160038.28163693656,-90668.8168863971,377488.057791392,-373416.3017611098,-396032.6117520418,-168034.62377889972,-52570.616932268225,147364.6956143692,14803.6615489527,333778.0735321993,166365.72878629048,-126797.1403608608,428003.08230293624,-55672.452258806305,-7079.007734218703,56821.65802088788,-15337.833639786999,17531.918764127717,83465.08220756672,-5145.042356844797,16946.83333594652,126499.77585614701,224802.39502770233,108586.81009561912,5963.535883790371,42366.08434059575,134600.94123469052,76846.0330477166,114780.40212317705,109469.64116814357,-196493.05068663083,37073.29137788822,79363.20519582757,-47791.387484827734,-336626.6200428519,228986.69467268544,46611.77969707921,46611.77984454318,116843.683434032,-183062.0795217872,40813.37433846265,82408.91499668136,-30553.064665023874,-325695.3426165487,226645.71943933546,46716.60733874265,46716.60781394541,770080.3658301992,-7779.72082948317,-547288.0563239336,103129.80531258596,-541626.7961382817,-60593.24352423898,396797.5460064534,-1.007859732041634,-1.0000095301169987,771071.1284839879,-4725.293801998358,-544773.3919970138,103975.62934313442,-541987.5756686814,-62409.86926477766,393457.65189140174,-0.9997255091438944,-8.594826422148447
12545.933154221244,-816.87642561805,566.8797043184495,-3470.1660012902407,-7209.48177147818,-1522.09582160547,-2602.62293300303,-5495.528999982742,2355.3680991743113,17913.434152297814,12441.9529130089,-1017.6120792566376,631.788718354562,-3649.7797012415313,-8240.22497796833,-1831.4695892867558,-2978.7078638968787,-4929.255511987037,4230.740077714588,18170.652481103105,-6640.078582705246,-7752.611796615673,-4039.8698278100314,2047.443638265588,4504.198139601668,1530.247088858388,-5747.8072877637005,-5180.932419756556,-6917.868816890051,-7916.215311130314,-4201.614963170212,2083.1455478589846,4584.4597146629985,1535.2841379696238,-5980.352488353441,-5485.10061531506,-300442.5408535138,-315943.49769845576,-135374.29511910758,-44109.353517481715,131511.1772325386,12567.046366352692,258136.2882150434,128036.92843226746,-72641.95768969375,301225.64125396335,-299880.41415253107,-317715.72373005166,-134753.28552755294,-42106.84169463881,117762.46487966747,11533.318755418626,266337.09028146265,133307.29049754204,-101527.3092932945,341423.8639711372,-44560.85327188246,-5600.759362641789,45834.85263593993,-12374.696426208791,14165.79432129382,67248.25115266693,-4114.541710903004,14053.238778709361,102101.15994973984,181126.2503385472,87607.82127899711,4889.455530382953,34287.945767924095,108464.1324964489,61875.02992954334,92813.4954568691,88792.22433212475,-159320.85798545612,30067.563855191383,64374.329220619984,-38697.73766738786,-273009.2811577369,185713.15773595506,37950.0622026753,37950.06232195826,94756.37691571131,-148462.7294082096,33072.023240738425,66849.59552603247,-24794.751660392936,-264155.92169025453,183825.38344147822,38034.83284174416,38034.833226225564,631125.8485523125,-5417.292120167908,-448576.8228096477,84976.80033980531,-444307.13238936383,-49164.69490106871,325406.6056412739,-1.0064588100861347,-1.0000078108052481,631935.0086724445,-2914.9574745652244,-446516.1445068256,85674.53651203698,-444604.12240898324,-50658.199491323816,322668.68687574135,-0.9997746792705007,-7.252351998410933
10199.376317978604,-712.5633073454553,399.7407483418228,-2880.0409556506474,-5849.636930630745,-1240.0161511913238,-2127.508604833121,-4463.4138231142915,1916.9777133833697,14599.170947638197,10114.85778561417,-875.8739105913965,453.08603417703057,-3026.4414122361386,-6686.025786895483,-1492.707312848641,-2432.2499376445257,-4000.9966836319422,3442.5298032981905,14808.704547134035,-5422.0704037411215,-6373.227132475024,-3330.429223839746,1671.4693192960956,3765.820636841181,1323.664940572813,-4580.804790954484,-4172.693280044765,-5650.216502221891,-6508.638860413202,-3464.181469763797,1698.8510765234296,3830.521384099095,1327.4885722281826,-4770.010642781815,-4421.42670179438,-243726.41573723947,-256385.16425458196,-109879.50345175096,-35843.83062970153,106858.46005365496,10270.378220470799,209746.06456423484,103989.18512713184,-58983.97081764211,244819.314526391,-243274.94636908814,-257830.43732319443,-109378.29348905927,-34183.46317368424,95679.52313253556,9429.66537106373,216459.0134849032,108234.23017977148,-82449.75239886531,277509.076537263,-36551.832539260045,-4646.403538368782,37345.75139827382,-10160.565838930894,11482.739266941187,54887.79135630886,-3416.230471064473,11273.231504992797,83177.56763187739,147799.0776038377,71440.30982737523,3929.73686180927,27887.530284798453,88529.25357132005,50459.716662524195,75562.81364016267,73110.53806458201,-131153.63172819235,24714.59057070814,53020.69927891065,-31901.969092493702,-224751.9821298492,152845.26807662973,31162.552058483445,31162.552156861537,78029.12471259848,-122193.15508860961,27203.769390267335,55055.52609143346,-20415.07669214923,-217454.80319258448,151285.91438784896,31232.479931208396,31232.48024820013,513908.7336848832,-2564.9404952428854,-365636.17466948193,70162.65965684403,-361481.77410133247,-39096.82440861309,264553.95300642954,-1.0052852471301195,-1.0000064248043774,514565.6592555669,-530.629550943838,-363967.2504590634,70738.20501762598,-361725.552022436,-40323.513654655624,262332.12393912877,-0.9998163390231113,-6.134367540843647
8093.84881727322,-466.5201388585771,475.7974385539024,-2121.0992381274496,-4578.776301408695,-1004.8665847629447,-1735.331284218522,-3550.5766097416654,1443.3721348643055,11545.342272690876,8027.081435193244,-595.97766241619,518.6426431649686,-2238.088753267849,-5235.1716864333985,-1197.9531778258447,-1996.6465690787697,-3190.08846054667,2639.600731816147,11708.233648189816,-4225.262819824097,-4897.848811407815,-2545.784327906089,1297.7596331439825,2791.424078705995,911.9277706732696,-3760.113944129057,-3346.9443627561727,-4400.591029476728,-5000.216997520739,-2647.001299851135,1322.1233162669548,2843.2966596351844,915.6624777566676,-3908.5673533466797,-3540.2071225187974,-198782.0719396856,-208869.24511138428,-89322.46533374532,-29398.0052830597,86609.57901755991,8331.927570272792,170180.1765487859,84809.8929012233,-47809.5566456721,198589.88049609028,-198440.56898451448,-210057.94185863633,-88908.45937347281,-27866.40534685379,77520.61833270575,7642.018976112241,175915.46125581526,88025.52163591674,-66833.54329282441,225239.37693707502,-28557.005570364552,-3890.9492968972763,29403.751588589465,-7612.805254865586,9371.71717253896,42992.08807472947,-2639.690793629723,8700.938929770586,65487.313125387765,115709.29298350298,55853.811785369384,3004.2421463685882,21863.83710792979,69200.01847311457,39661.55422777709,59211.328313446196,56172.34373439314,-100876.21576111758,19050.69462225138,40713.46878732972,-24535.943831969158,-172777.396727335,117552.9273134016,23897.719213593315,23897.71928934258,59960.784877874896,-93976.81922665535,20976.486246369815,42275.68242333804,-15671.012721742667,-167165.44517617812,116348.72861451603,23951.57171506374,23951.57195917961,396788.94534805964,-6163.660052437181,-281594.69452389365,52017.19512744727,-279261.4311602447,-32315.03017231644,204789.57574260596,-1.0040120389956837,-1.0000048465544429,397302.0090726149,-4586.5737806852885,-280290.4591392148,52443.5174569364,-279445.44526943984,-33238.53450901603,203060.47244463983,-0.9998589165021012,-4.856566192466225
1294.4719992695543,-78.99433983205319,67.71952886588782,-330.79886659308954,-624.7963539994621,-141.27911948878878,-261.9777430620478,-597.440780132233,301.877014416467,1824.4658292616095,1284.4640543304545,-98.37006246334482,74.78090659391462,-348.47300735403917,-712.1579162656276,-168.53286466106678,-295.14668681839845,-541.8434729639657,490.1932555493246,1851.398735946466,-656.0094760697243,-679.2633946114336,-337.8082935364635,169.33146847178114,236.74059165768972,86.62019530970467,-732.9038839949765,-567.792916914862,-673.838018209575,-686.4901872967916,-341.1693445418556,181.61086055758412,245.80696302786149,92.68910263387438,-750.241798919284,-595.8161198999592,-31487.230946801737,-32800.02463348421,-13907.326179648975,-4508.2400424212465,12982.843780235764,1008.0401436071145,25595.620830319487,13192.585033013325,-7334.243370484743,29714.89898205406,-31428.622735272416,-32966.14837547322,-13827.284658534814,-4307.908470901762,11626.517730155128,898.7561160292983,26418.454050263368,13699.329199635426,-10201.92153945695,33691.59502122295,-4608.99581565025,-615.9785927289826,4776.718539006104,-1103.0772371888784,1617.9061123807019,6975.715154649626,-446.1723733027784,1286.600416412786,10670.446039861046,18759.906450067992,8965.510826523865,480.1254555454394,3521.8795553859213,11172.530307213898,6429.113050882036,9501.791037622908,9280.472274925367,-16588.837263863683,3091.032572422037,6748.868617745078,-4053.9333530259114,-28472.200150823723,19318.86067268182,3966.532847872795,3966.5328603636494,9904.24310391804,-15448.663236208213,3408.18442519664,7006.335781669212,-2595.2567603292996,-27544.559212905126,19121.439947729246,3975.41309182568,3975.4131320063507,64152.61591365397,-6131.084088072473,-44687.7499125247,5782.001672094317,-45385.1991578947,-7845.223349674604,33873.59686714156,-1.0005917522118024,-1.0000006347448478,64243.756513953704,-5866.791998683552,-44454.5004010372,5831.642906401193,-45407.70329091879,-7967.376900142808,33580.23468845296,-0.9999778352581853,-1.5117228623488117
117.80852075990983,47.85145620386571,-29.718664015819968,-41.894953112011784,0.5689318168106164,-10.533247855554713,23.369766356883115,-25.772705482509007,18.641944738109782,84.67859598617646,117.7543515335214,46.46883839078034,-30.263414580131816,-41.93107525115025,0.11351823851603371,-11.762661119669167,23.21599632303574,-25.385852181876356,23.275355513549805,87.56065615092189,-18.514820631117807,-14.243954388151755,-7.997564993648782,-0.9285006183137526,-3.0321247247979213,2.926331676239066,-24.104103055327414,-16.770316724772712,-18.974685363890657,-14.378971363365286,-8.059312068408486,-0.767610577375115,-3.072316242699478,2.9509029974548633,-24.82546906960258,-17.718441779887357,-3881.4345587448656,-3976.4500253009837,-1651.2806992323794,-501.31172248020323,1479.5008788928506,62.40011015465552,2921.2567619119263,1519.5479098493756,-856.6556825514673,3364.1379813521944,-3871.194567678578,-3991.416995761396,-1638.8084254516193,-499.490484835699,1328.6774191442635,49.6126245907979,2983.895537810293,1599.8321722238863,-1186.0221083860336,3801.388016820459,12.221522621596062,3.551539597318178,74.73238580263566,59.42093554193374,52.18955300177061,57.090397261096626,-6.675898422600391,42.424931640429435,67.32839993836232,66.6585256182108,85.70668827964802,59.43075579399108,57.14038523701044,72.61886702881138,20.07423557493183,75.11358606008243,274.82216864756225,-263.36691200402424,173.39233553483103,168.68372866717107,139.78148516288633,-471.4987157298642,638.596078750547,56.773801771475114,56.773802001276245,283.5603589642894,-244.9612436871627,180.2199544443794,173.40303952684408,165.22685452853736,-458.0694754892882,634.2187805878559,56.93191224124981,56.93191299551563,688.0367216391695,-127.2510620043602,-458.5078536157161,61.94251387221576,-497.692343877226,-142.4934996629155,375.1581762092379,-1.000003120279527,-1.000000005271797,688.9944625269749,-124.60870239140674,-455.9264445856075,62.0130668109291,-498.1059919049074,-143.40236413772578,371.4297263619639,-0.9999997863682687,-1.0022917532868025
264.3244377245894,7.1488713357237685,19.128203818323616,-62.121111154888936,-58.87220146232802,-16.771367444826264,-20.385642830173698,-113.44343804934543,73.9824590784188,340.3370770761395,262.90469100053326,3.9900219010583204,19.991265395248387,-64.3621360887057,-67.40014095884203,-20.31857193339409,-23.861387078822524,-105.01164461322858,104.32481247800202,347.30544883982407,-88.50067711593637,-67.02924932980379,-36.14662849019988,-1.219369164376316,-11.383091614603435,18.211319113689154,-116.00435919425018,-79.71281216651515,-90.80737242748022,-67.71214521981665,-36.4723415494252,-0.4347805237375678,-11.593156557833458,18.31981683809412,-119.59908308092477,-84.43204885668708,-5830.578452522915,-6046.166519887354,-2608.9007359757816,-709.7005033318148,2330.5308683850817,63.419208675529035,4531.52177295728,2297.750798642846,-1382.8053252793377,5282.332308680343,-5804.834097924053,-6062.231631074125,-2590.059080292943,-776.371967216443,2099.6684302905023,42.7550536344359,4518.488801214332,2509.0421656599733,-1898.3150066326766,5915.838076618355,-720.2478942361666,-152.86764489164318,808.4488982871625,-148.55189183425728,313.1816122442202,1143.0982046579227,-64.6977495220831,204.79342713714803,1769.018752744952,2988.8572606552157,1458.158119568035,63.12674897103516,585.8968601698908,1804.1048799464863,1052.1135715501578,1544.1706299647715,1421.3236726464138,-2542.4324330654918,468.8432487358475,1035.5484224549696,-629.3291540404292,-4360.2959787303125,2952.5183530471345,600.2738329578615,600.2738349135209,1518.9752371707332,-2362.84847743678,521.2833744413525,1074.3182922147234,-395.76442641810837,-4216.272687848386,2920.9658512744763,601.6672116446783,601.6672179161086,4362.737998924713,-864.4609314064572,-2856.8074574701473,929.51707359012,-3123.67487273186,-1387.8568117496166,2499.067406790763,-1.0000324861304275,-1.0000000308600854,4369.832587545017,-849.9167701832514,-2838.591193290229,931.6180621622457,-3125.997799647079,-1396.1540579203963,2476.4695476494035,-0.9999985404836879,-1.0223730631941832
302.5012777026581,-12.068902878632471,20.047931138369275,-65.72303925059936,-86.06988353770437,-25.06984312200877,-50.74816004781349,-138.99720402613954,82.31592290317873,422.41267056061076,300.5888105145906,-15.950438561659134,21.691413123256023,-69.18558027732841,-97.9943260992043,-29.631385365131717,-56.72488444961352,-127.47169578769245,121.33019473103718,429.5479499513346,-125.18586291659334,-94.69824489174334,-50.90180441220168,-1.3718366369746797,-15.76050138502048,26.22340373003159,-164.17663486420176,-112.7060090210569,-128.46062986900145,-95.66832794778077,-51.365883159461056,-0.2603176683692886,-16.059610579243135,26.37589399591875,-169.2775154618915,-119.4019869837616,-6995.898786976938,-7241.773060389145,-3076.933379941396,-937.9203922447817,2776.5281009411206,136.16565338611622,5456.471925493909,2832.7555562145903,-1610.9802584172703,6336.198634089375,-6976.115478796108,-7270.073685646738,-3055.6928424917155,-941.2968993221398,2491.8292067085035,111.33853682391037,5560.857103033085,2994.021845654942,-2225.785175716365,7151.466230195506,-1000.5824997257549,-118.40175447042665,1078.6335950339007,-191.78795607726585,400.390005176246,1546.1067573388095,-84.68729619763387,248.98543098579464,2385.2388899611583,4148.605529206109,1968.4276083437517,109.85339806502438,781.8530597711467,2458.7688453619276,1443.1452388761832,2076.1608242239286,1767.9750560071288,-3161.2802428839127,588.5260371276339,1286.2029654533485,-772.2630685904107,-5425.85297846936,3679.8701479211027,767.4192445823755,767.4192469661627,1886.9915776304697,-2943.5582714474726,649.291077017801,1335.2544485824158,-493.54283578614485,-5248.812723647004,3642.192679782435,769.1139958188841,769.1140034845051,6616.486310710054,-1378.6121437563338,-4372.150834650293,187.25694671509257,-5365.280921158984,-1191.4227572088862,4201.981308188403,-1.0000921232601294,-0.999999997225785,6626.457140064954,-1347.321554196631,-4336.056796033117,194.0151856313396,-5364.177234463811,-1201.581635158709,4168.612086161876,-0.9999972223254763,-1.068593232971211
54.64143651885031,30.085346468321717,-25.85100257860601,-21.419411202399054,6.005883851889249,1.3758380194657571,16.55076095397857,-5.522084211801362,10.27904010137303,28.232195997945436,54.69696846160973,29.799175067908017,-26.176827544774476,-21.110697892893647,6.572895211234268,0.7365477434909856,18.040867829608384,-5.238825060244324,11.332494199461603,29.78972241225077,-1.9823788530349151,9.702776121041358,9.463011406708466,4.590773516693355,1.5018166390296752,3.298371189327977,-5.499846361501983,-2.348218564079467,-2.101259068758395,9.767828774358435,9.549342359907612,4.637593606247373,1.4400484683027541,3.290115580004778,-5.716755302564793,-2.5234176902384107,-1542.0708967846224,-1608.3212749209758,-679.0635837598812,-215.16079475789903,654.6603934904018,54.55619468751286,1283.478630319595,633.7261963530775,-362.7384206494847,1503.7288410091269,-1538.8071125281062,-1616.6171732258738,-675.4642866753347,-207.72835520983,586.1661391207267,49.0015784675383,1320.236674992336,662.7221211332968,-506.2417185264824,1702.195697032111,9.204250093809167,12.533913827221598,36.6240703514017,36.96026521577104,26.72282438065202,23.454826448994478,-2.9998770569865654,23.770239813971877,28.7242361585958,35.6661813867802,42.354354039484214,39.57235624407654,30.336847875566384,30.18875009155383,6.904684340403676,35.3293597230068,-26.98240857755681,-15.170678461965728,50.02742984232491,17.829069277563804,92.92012003661786,-28.32781244576269,30.284970048798787,-4.055941468949975,-4.055941461568025,-28.272832771816358,-14.904930322798679,50.384308369417944,16.15794778397308,92.03456005021489,-29.04988472064129,30.02641409557585,-4.05934926222442,-4.059349254716087,135.2576843572981,-38.539137677692814,-78.4700809410448,-4.896899304102594,-138.20968364077962,-28.824881484100946,103.96891038709279,-1.000000771586348,-0.999999998336003,135.33946944214406,-37.90131304238533,-77.5958375688016,-4.887490793754422,-138.2794696306182,-28.856676415224328,102.89160224954509,-0.999999941224059,-1.00058482866322
48.789747653736384,25.376006872390143,-30.35277632946527,-25.595254873974696,4.844881457896144,0.6088644432040008,17.65791507130453,-3.65618017879481,11.60782934410835,23.724837832267443,48.86566288385796,25.05797801198803,-30.703077407212312,-25.283675939852067,5.377937578783753,-0.2391294150903159,19.754276965086834,-3.3923282991449453,12.652802797246013,25.150210644048265,-9.172673859684739,-5.09656844562963,-2.3425562787918253,-0.14505793327915917,-1.4572635953551847,1.7390149935473123,-12.572052512268797,-8.459096528367649,-9.404695264125642,-5.148631368304084,-2.3593952715579083,-0.0717876616519395,-1.4919054357603247,1.748145703989123,-12.953483739214471,-8.934202257057867,-1621.518800200357,-1697.415959624244,-716.4104100531883,-227.89806049943,688.7553104779731,57.834918798723606,1353.2400223936154,685.3987988437367,-383.9098926863599,1590.0584532344192,-1618.6784557251335,-1706.5505790651341,-712.5012854040681,-215.67148059815457,615.6161372447808,51.560069980470125,1398.6765172587852,710.7599761656287,-534.7415164020961,1802.6521203549662,8.521168447107366,11.922951280033942,36.06330967569441,34.319639568638515,30.121887414179234,23.654291821742994,-4.865786470715305,25.537739824344765,34.55505463075443,41.808232948191275,41.05858269708597,34.26502474154623,31.792691422716832,30.95656919606965,8.133355229981914,41.060890646194856,129.38836197019816,-117.21781983084955,93.41547196144437,82.62955318197274,94.05676220684796,-215.67042998297666,314.1547806184394,32.71346539252105,32.71346547781602,131.9516858794096,-111.2340571797233,94.74065527980501,84.89453161823018,100.34972152639132,-210.68241676885802,312.7818034068449,32.768598090808446,32.768598376748955,199.347573513335,-56.44064437921014,-117.01652811303116,-6.309114500327808,-203.17107934050853,-42.55648851397953,155.48788659432026,-1.0000018958052455,-0.999999997382883,199.50073021074095,-55.46443447508761,-115.65219734508409,-6.2152363013437135,-203.21516871482498,-42.658098352640046,153.99511605594563,-0.9999999074160234,-1.0014183919313788
49.16981027769961,14.201113891001462,19.220135356550976,1.071701719086837,7.954517241469203,7.732294095809386,3.6789127352673097,-20.906762410587376,11.281674880301209,46.25436633678519,49.00443117173674,14.262736076229977,19.25261681171553,1.2185808896680506,8.450553983777844,8.506420967869824,2.433099054908216,-20.22191605791519,13.886257417254084,48.174836402245475,-12.931722068842534,-10.033024936113945,-5.751982759885864,-0.9052966762188914,-2.3659291021695776,1.7069768569559043,-16.77279050600898,-11.749099961025033,-13.244256502795087,-10.12433505203969,-5.7926720355075485,-0.7941619848634106,-2.392569023729296,1.7248529771051255,-17.264935346006233,-12.396385832262073,-1989.0419188589815,-2045.8311523001682,-869.0614454552722,-251.02657326543928,770.8851754984898,26.390779161027016,1507.9146217728517,772.135994808851,-453.54872522343095,1743.0343698900456,-1981.6977855605837,-2052.114575169661,-862.7937566542666,-264.6709881991243,694.2042378962745,19.884659864700943,1517.283349846666,831.7581100206793,-624.7804263159279,1958.9614208094183,16.662546350569965,2.179044580586117,48.224349290933304,31.686065046520348,29.239998429329248,40.05245661751027,-2.9596811483009975,51.098007001934036,89.97719210701989,90.67644570188915,72.33407855495223,44.12631492830352,48.0194692232992,65.61974376933996,31.300648505591816,93.72829781795055,117.64359639390578,-193.2995294578391,145.1995616860175,31.986882887109367,58.30818016969928,-251.89729298743362,401.88769594100324,57.98514461803847,57.98514478276736,126.15380064535354,-181.624553619397,154.01546753883736,34.46473602911476,87.98728986621254,-245.39564194096923,396.7163918929177,58.104551202475754,58.10455182625688,445.52746276018826,-111.45912238309965,-217.83557986842513,143.03476963246078,-244.6783835952721,-192.9324760703119,292.4041018067945,-1.000000982835377,-1.0000000027085698,446.1879154162913,-110.67463998140904,-216.19919870694127,143.0678586394904,-245.12426152205717,-193.66536034983704,290.0536826696862,-0.9999998726450184,-1.0005684660254477
21.2999617502548,7.662372385350947,1.194827884144615,0.5479645754021811,2.4870548344023096,10.187793723089317,0.8883867096924052,-8.852283231752594,5.364715555695989,14.489204584672196,21.18862037850033,8.05813310154683,1.2678962011451573,0.7657221071114363,2.48882299345922,10.718253475213848,0.6849177860998816,-8.137011824245588,6.549250352292828,15.466445360828839,-1.2302394953104987,2.2547785027593004,2.2862050752173,1.0060120141085167,-0.1894868720269558,0.24590068296870338,-2.199865105066931,-1.3521934979625674,-1.2616618363215113,2.279069936851972,2.3207038766734787,1.0319191518758202,-0.20130869988210276,0.2474249850532606,-2.2540690112337636,-1.3969445776045846,-208.98505243868252,-215.65472250875706,-90.06952286081764,-21.049097218378165,79.18778322582851,0.33220891310981254,154.15820502457555,82.17443212337038,-48.57525784270855,178.8531948061117,-208.0541051242279,-216.09761654426615,-89.28938442414038,-23.541824278901125,71.39076988276537,-0.4281835817549141,153.40903062537245,89.54868095511688,-66.15643943559847,200.18874721246817,4.647035195213088,10.179353219101138,29.39022010971652,30.837963498640608,22.528481278381474,16.363807397982445,-2.738993038681254,13.71520779531659,20.110037804761753,26.534286109790557,29.80252501819109,27.519920448194146,20.49706910253569,19.466082877423727,5.281813807634652,23.301490357571673,113.1963486962658,-8.19275494361611,-18.212468110521527,38.02167374831075,-33.58019089200415,-45.52263203478286,123.07224352098658,-88.47930522590059,-88.47930519804528,114.75852842114162,-5.569444964438789,-18.364058302015163,40.185586023133936,-31.633073973386285,-43.186395777475234,122.83033014325015,-88.4529094418661,-88.45290936143529,82.36397709468483,-43.07561923028185,-26.795283859390167,129.2673512349382,-87.71947125953882,-143.54491012186895,94.00909772562417,-1.0000010742957637,-0.99999999824019,82.53545745301723,-43.36454655747148,-25.964826613135234,129.4134991168815,-87.89333302935935,-143.9897199990798,93.19614101893465,-0.99999995428232,-1.0004193325665325
26.1553740325998,12.213161153365242,-9.250974511648792,-8.127607047678168,3.0185154110543766,9.21529283339763,4.4802243929863215,-6.163281326917625,5.62615821330777,11.373704350595037,26.090894632915052,12.535847935832873,-9.259115353716311,-7.850225879465425,3.104098317421762,9.46178318019412,4.852459415195437,-5.516570583763861,6.42686311744579,12.396304586927423,-0.1355503572463744,3.703626981511331,3.083994883734332,0.5956092423501237,0.05555203290600208,0.570765137755002,-1.3995437850848444,-0.4171442023350418,-0.14673610974642773,3.7315828674777167,3.110374345402461,0.5842213454143178,0.0266741761236734,0.5650572386160353,-1.4511318542553824,-0.433973392625206,-236.43820338407616,-239.8405937409664,-97.99177105869555,-23.83351770484329,83.48552134966663,-0.9748476455201114,163.51040421673545,87.56715529063872,-51.36349981094446,187.46642343977481,-235.43361097733518,-240.256671578551,-97.05200850152379,-26.468462058502368,75.37205920529244,-1.753136610443767,162.81810128094867,95.23684180453424,-70.05139853185723,209.96245875451447,6.627016433436028,12.337432471556985,27.289285341161253,27.09385090529102,24.029110749880633,16.50637804785153,-4.980761693248664,20.71872884691331,33.97091094127645,41.73674986728115,29.113046105389152,22.73849799977184,22.01933403792557,22.601272120910675,8.9445449527854,37.553499178370004,62.09798945135469,-20.33275575894793,-10.39367816389747,27.781393906621783,-22.734576882112275,-54.91759043076654,68.69304391774415,-61.74974500912004,-61.74974498826692,63.11808999831564,-18.330448414284458,-10.83291336152655,28.963446296968552,-22.07051019577582,-53.02719033550489,68.60142387676609,-61.73247814557376,-61.732478088623715,122.15491628542371,-24.56920166123371,-80.79013428778723,3.4500983558770373,-95.67053880104355,-21.369107729472994,72.34708939432652,-1.0000010167009488,-1.0000000003694858,122.31994186743424,-24.02851215041136,-80.22705960903704,3.503567857265242,-95.7023273540039,-21.520557431656098,71.68071484120158,-0.9999999555018774,-1.0007684588315886
36.67047760881523,16.10798240101276,-12.937879252785258,-12.941016690736316,5.091907973728951,11.890149811498933,3.4826567195983893,-8.98516023546183,8.116684715066356,16.739589257474545,36.57670305546557,16.538294862312544,-12.867406807379465,-12.637743955347766,5.416454029871066,12.228469601233842,3.931129902518655,-7.979911670919105,9.324430955903432,18.031668615886687,0.6120332380936346,3.2437388236034406,2.460225486127807,0.2359414242929051,-0.07941391530808928,-0.008096264981241275,-0.059603645741072825,0.2994086021144585,0.6296775407713886,3.27276294290436,2.484712310981785,0.22001765140519647,-0.0981334143346776,-0.012636115168231044,-0.05924772641303083,0.337659335445675,-329.58149990231595,-346.3097449744988,-149.5660179387407,-37.081836315658116,142.23882986528722,4.973909032991517,274.5539246072708,131.94213016176852,-82.38159836955762,325.1221029091142,-327.97712695292574,-347.2835228917449,-148.5291837323796,-41.550064940180235,127.97979051135053,3.6546582849353166,272.95683261782284,145.36359894285792,-113.4582165343586,363.50466751267106,11.951131462470956,23.8532333261828,38.68334419017684,39.05556270610618,30.784256024923337,22.09769206436872,-6.3725956498908705,35.0337195008478,60.08501871270069,75.76065735527649,41.36265559285794,30.548131904571477,26.769165152239015,32.22707710786933,17.5311207205512,64.64111265541895,100.15153175309739,-38.53997043513324,-16.613339344052353,49.191504280111715,-36.30511083765318,-101.3046928039568,111.34878866559495,-86.34617626291104,-86.34617622751396,101.81367975853911,-35.07757026939653,-17.4977755408512,51.18892382815507,-35.63249950961201,-97.85047950218461,111.30437170284638,-86.31769533572627,-86.3176952405616,220.67568770946306,-59.98585250247594,-96.99618581814448,73.45831693627345,-114.8480506080565,-100.7705915695337,155.9627929701696,-1.0000009106668342,-1.0000000007706937,221.00881722253445,-59.63197130292812,-96.09945573033777,73.5236591947785,-115.03640724241228,-101.14188259526297,154.84440691443464,-0.9999999319750736,-1.000607552051733
19.553539265052276,9.72059394006399,-11.350398189331637,-6.403007747135094,3.2861610176191958,5.705305841565204,6.72379749462043,-4.065050895951645,4.099262277161263,7.838744344326458,19.544990554971235,9.878384668290979,-11.465467005659313,-6.143564500038955,3.4943591116292367,5.847938774989683,7.112405099185138,-3.8652706286433123,4.40066724834267,8.655098866345321,-1.6613483396018076,1.6788325290447044,2.383301708442076,2.454606866798706,-0.24246687186423466,-0.5145776645991105,-1.663684508105234,-1.674468109794664,-1.6943886697396382,1.7175035435614998,2.4516179785982364,2.548416010024001,-0.21786254389169657,-0.5007422870560256,-1.659225416692223,-1.685425393373446,-15.42591443920435,-17.537740383181116,-6.760563964002649,2.693829707363184,-2.6128327361032873,-9.9464845367114,0.6802964400846476,15.402177423185972,-3.5730232804226736,-6.837169048201266,-15.329542208557731,-17.06011409946406,-5.969015640610518,2.7248225295914565,-2.295033734464751,-10.084874138191003,1.180719431202932,14.515932759335174,-3.755831083281854,-7.342024154416254,1.3433576420314752,0.7953037524671017,11.372462478873038,14.692025452326893,7.152232480278988,4.403056843883629,0.2648080188311456,0.7419489369061485,3.547763309940059,3.134005945604091,11.875850168537422,14.859215736767638,7.373433051676717,5.163942350257472,1.595295618316997,2.084474354468797,12.276115654414818,-9.626133638933872,-6.2006819869511345,12.198805258642592,-7.092478140615144,-25.673054743250603,7.3091473155165465,1.13151090300993,1.1315109191485508,12.923283507422841,-7.658124524873016,-5.64779636017598,12.346359392721952,-5.3077738361159605,-24.249832481626914,7.179662927431089,1.143210532868968,1.1432105703544302,75.27671982253001,-21.637519624830016,-43.352704919836164,37.72126809296833,-62.903587993048355,-48.36572390643962,55.73851845811375,-1.0000009528024214,-0.999999999791355,75.41052273525536,-21.475604316302146,-42.88058360184576,37.80799135263504,-62.94759629865787,-48.57691093253974,55.27625184674189,-0.9999999673556903,-1.0006102517111588
12.561613061874695,8.08925979396742,-12.383425024428885,-6.018335217656288,1.2249707289418281,4.689298902843685,1.4292621863629462,-1.8588563189543437,3.4193846184555663,9.01249169700851,12.535170063923708,8.257541053035515,-12.353736648971996,-5.9017253810397445,1.3198497146840444,4.653926729836646,1.9659129824310815,-1.3494352921559176,4.082005821332321,9.482209693142195,-2.816833855806315,-2.2025408684341796,-0.0015221443019727277,3.2316425965057705,3.825502709985553,3.084695408034575,-0.5204485727118814,-0.9446402514810054,-2.9510163322980083,-2.243613257302791,0.007384266057775091,3.332416021962328,3.8667110969294036,3.1278929263857917,-0.5743769993287089,-1.1026757628828319,-8.951996580178113,-11.437763516171392,-4.847998298376972,2.7564295147412947,-3.296307963959124,-10.388397589199501,-1.0977933240148312,12.538135979995001,-2.523233904310694,-5.798951366105299,-8.85918627965877,-10.942282958090667,-4.039629287996526,2.8202802890646237,-3.101441116758629,-10.629475115356867,-0.6616051547720783,11.57391475869403,-2.3762652178615995,-6.3664640481221655,0.9246176579604964,0.759077529977258,10.538198348766421,13.236690515394681,8.267293077189366,4.7056526927872655,-0.1125541015534911,-0.15762717791438963,2.776594099052339,2.7006394124238984,10.564938750046316,12.779546555996617,7.914701038339118,4.971408420147607,0.8839850253053656,0.9098995537595801,20.862713655651685,2.9125271647513196,-24.46345791136025,25.829375224833026,-14.0022896439847,-23.94772855182415,-12.618685368762574,-10.51871732055635,-10.51871729483093,21.687255129434874,6.761707944212437,-23.35488017014994,25.780408398546445,-11.202982281637787,-21.400525541335377,-12.680529683083499,-10.499372519648267,-10.499372479816941,-24.466506458489224,-12.718578377559409,31.785974568129706,-14.007321157621176,-30.138031795166686,-3.9622900337177125,23.49771466572919,-0.9999998845453753,-0.9999999966385978,-24.627758862489305,-12.728273699876276,32.12156978905277,-14.030126362828376,-30.13597880270877,-3.768178545575481,23.18679960290122,-0.9999999890488692,-0.9999117580112239
9.217088631353247,4.969801142732983,-12.143514309003194,-6.388138355385539,1.9777826681129442,3.024675319853701,6.688578623365259,-1.8520144291746758,2.882249863677525,6.4105645072534605,9.23265472636202,5.016626810966349,-12.287057235860647,-6.185059095111218,2.0930667440347963,3.0416072210362635,7.124213851981973,-1.8692474868291447,3.048015001228652,6.991853806388685,0.5970179225614942,-3.3018405159950133,-1.0759012875905543,4.2916450834384845,6.85664322294449,6.4400461701135745,0.8361584176277078,1.866232917986646,0.32105829532737873,-3.4530208967737623,-1.2313173948020324,4.330457602837991,6.902626264678895,6.437345601134677,0.5927062976584658,1.5311892730441818,-9.700569875415006,-12.142510313228671,-7.93516474279185,-1.1572632934634495,-3.1544629732896508,-8.228169060123045,-2.7427414161659294,12.73500462624325,-2.96001712936121,-4.733793843895558,-9.63470559505836,-11.76343960204204,-7.319308867620797,-1.068973707526446,-3.065448541185111,-8.522681638924425,-2.471957220922035,12.011339418719007,-2.609046308648182,-5.297178120333045,0.8667886491879185,0.12672175893962212,11.275084173198573,16.356640072251658,8.830864641193866,5.019697018922974,-0.6787179146733349,-0.5780986017987899,4.6162914196087454,3.812171966932974,11.338321522227908,15.603971167028417,8.345504461910679,5.848663929005068,1.4615514261636415,1.751708964431519,5.557196820688026,-4.034284107666253,-1.512114338643222,-0.01856830283040778,-6.95717289463526,-5.4052258669087285,6.206369331709184,-50.3401084084903,-50.34010840508229,5.780437362606875,-3.820733032703665,-1.490111523002372,-0.13519475924510083,-6.3469023748270965,-5.563788677864894,5.990321252101193,-50.33709066455435,-50.33709065381549,1.091356241620968,-14.07070572150088,13.180036404517603,50.8575467358154,-17.77074972641835,-55.45801750034855,24.620665424804884,-1.0000001126673854,-0.9999999987176619,1.0963359736827618,-14.325312671246243,13.430979268373736,50.89392907734633,-17.840999797207704,-55.5736578087726,24.388889945409677,-0.9999999906249162,-0.9999262804668182
22.23116667345304,10.326318043642921,-8.238228781496176,-6.025220177147755,2.274455647285694,7.6138701281897685,5.360026117112092,-2.6934527431157296,3.608455360767303,13.603952712957323,22.18834120152028,10.568774534289492,-8.280346959739536,-5.76023153701082,2.2167187259363645,7.610874444152305,5.855708219627185,-2.068007279480467,4.22689670809162,14.600096496549755,-2.9003834184665975,-2.549717202522666,-0.9927040677187714,1.1670667563314199,1.7936955632472555,-0.38988154732602154,-2.992602918236516,-2.6012397349043845,-2.9653981030469367,-2.5724169192565327,-0.994708801253772,1.2424221292307558,1.8701827713172963,-0.3423237111781865,-3.0200908165427616,-2.665861400214772,-10.655559344902395,-13.319716150292956,-6.92504642535961,1.0063991825947625,-3.1306561368458907,-7.5950639600379395,-2.6166475421227275,14.09160596859279,-3.3768997990522056,-6.359239776121668,-10.596830974596042,-12.961786377734612,-6.352194284121084,1.08666945163117,-2.925339543194055,-7.815239509054435,-2.317913436889273,13.407586929214332,-3.124603673865837,-7.005141111853385,1.3454853535102074,1.0823559365940856,15.459204610095918,22.509781948924157,10.222335316534485,7.3959930458258505,-0.2887782844762038,0.4298621841631822,5.65683012877105,5.370485434676719,15.220658874472726,21.19103320775017,9.202389831636209,8.063843290440547,2.0599231996104717,3.0633032251120444,17.40485092112065,4.476782720943615,-22.05091540338008,22.005363082747447,-11.922310514441708,-17.969320190470967,-13.45052864673034,-10.181498426826396,-10.18149840607675,18.03226031012999,7.686039327966094,-21.16316707915276,21.938715671459704,-9.759712082260315,-15.849526498765263,-13.463644591546569,-10.165867175938738,-10.16586714706083,1.4082194461066777,-19.39401459814728,16.868942251133255,-14.703134448452246,-54.665379771610176,-9.017596576300926,40.60308460679576,-0.9999996116160775,-0.9999999965473497,1.2504029407280575,-19.30777753602297,17.310437274320144,-14.767036154698076,-54.70872698290511,-8.806839071032954,40.05390389178044,-0.9999999820175581,-0.9997127190031381
13.00545753727328,7.1853349524394154,-2.7336403341770725,-0.8198021833120299,5.876005310022407,7.597467669138074,6.955846683972132,-2.4021865421913744,3.3581179355202684,6.555616296986855,13.00527387340086,7.473385430878961,-2.8361197062309293,-0.4842465170135847,6.3487490271495135,7.90336603170328,7.3673314479123855,-2.251234680707268,3.2472561224868226,7.4434126413021335,0.060109687109155575,-4.3144231713273165,-1.2166776615688637,5.7297427495162685,8.497802742135256,6.482298045471595,-1.3798340261413122,0.721213807200798,-0.27874327953226496,-4.493004079520947,-1.405245423674403,5.813675040824477,8.60850558405657,6.5005530655497346,-1.688082777081022,0.3185904377056871,-12.493080363435356,-13.257945531690359,-7.218964865062346,-1.3981586447344307,-3.091303639992003,-9.952309038895804,-0.8358367425402586,10.450123896419203,-1.947248790939006,-5.698593140339394,-12.402730736636586,-12.790312296316216,-6.440989735858188,-1.3373521978147398,-2.8730368260111123,-10.159909936381219,-0.4010959494585487,9.505219458546023,-1.8282667435451816,-6.236540149754376,1.0301631409656182,0.7869854771414803,14.146475437036056,21.187584201332307,8.811838308662756,5.277766717820247,-0.8907592279569615,0.2925593824225148,4.915932173245545,4.633800219310126,14.760702059968441,21.21649724036336,9.03332494793301,6.640322072461548,1.5169623872352942,2.779604852833433,37.15891940024209,3.7459480079468284,-6.19989696101109,7.188145963996556,-12.039733393205687,-0.2357961704713819,39.787170310016116,-50.34008678790215,-50.340086780598476,37.670402730830105,4.342834262926087,-6.035890566157383,7.763147265303507,-10.861986492962878,0.018840668883650102,39.55947944570832,-50.331941860157606,-50.33194183679472,-9.383242601367087,-14.687391613681735,-23.982016612794222,-3.692749713330207,-40.05854111577593,-15.905562640388839,-13.661935029013101,-0.9999996021002979,-0.999999999132907,-9.481782794313425,-14.86821205824363,-23.892593411258552,-3.676366815924108,-40.12750796511159,-15.912130435412386,-13.936321366513166,-0.9999999929178666,-1.000043482974163
8.484976894224289,5.430363938973564,-8.416107976986725,-3.899255212214604,2.4425722233188836,6.799326558294689,-2.588087736063896,-3.765797658838883,3.841694014221213,7.973463243958178,8.425098120410873,5.756903675330995,-8.262884687454342,-3.8131501407106505,2.7346579687441777,7.073298573333412,-2.344219129158824,-3.1083128897895866,4.628736655378748,8.353478522860401,2.0033294014037692,-2.062642949314263,-0.015984970655583464,5.339831346347654,6.300087206739817,8.314500207096795,-2.973929181063633,1.5801219191680396,1.6312394091987208,-2.230546365696419,-0.2159011120552814,5.393500916186171,6.333060490379966,8.28683874293943,-3.449306474918557,1.0270984732111719,-11.523110553886282,-12.328869651593715,-5.036604143415301,0.851351879121357,-2.0647735703830783,-6.695757842483434,-0.1358189370304395,9.731562291943609,-2.161271464019561,-5.866804744390796,-11.46193204224524,-12.004964367928508,-4.502370016136976,0.882458391292244,-1.7749999805068901,-6.763666586635757,0.22273851766470562,9.087792832299977,-2.231474128135258,-6.3248097420085365,1.9560732124539144,0.5327756566678069,18.329625961982295,24.084848900283102,12.292072411559598,8.992883709507469,0.33980448178510125,-0.9842085612140776,5.183226189971827,3.5937267413993847,17.77351717652492,22.54066361198616,11.011945690833251,9.160112006892358,2.082896176165078,0.9176042291191927,15.729503274239066,-2.480070843076593,-15.326876709091923,18.3801152146261,-10.355207802643301,-22.819909468493467,-3.8380029925992574,-4.254175397902364,-4.254175376419517,16.4979839232412,0.5010675020108721,-14.38058375483136,18.39327396020464,-7.800712772783625,-20.842287335175527,-3.969063554635794,-4.2381661503406445,-4.238166110073699,-26.76214422170186,-13.92893475545925,34.81756097491734,-15.319261373566711,-33.08584315085861,-4.341666692018825,25.829572107790348,-0.9999998732991632,-0.9999999963128869,-26.938869873669308,-13.939775189194876,35.18574953308846,-15.34417926925261,-33.083649885128516,-4.128905317485776,25.488364547441254,-0.9999999879911786,-0.999902590139904
13.872550310160458,4.416487191083204,-6.677202200064946,-4.712998374821911,1.3319800517293912,4.119837712414129,1.2336019823054036,-6.8373779725540995,6.943969366445424,6.1679881142259045,13.82856917555587,4.5369375956520495,-6.655444018646462,-4.635823395191258,1.5842650960195428,4.299558470449594,1.6654550253083478,-6.498825192176895,7.9835383154858,6.58233755078062,-1.963906949481253,1.4661186866236746,2.482245356539611,2.7516081957169987,2.167764417952492,0.3637093659905455,-2.5247033296839523,-1.8955383571272884,-2.0270536828361343,1.4769414899947895,2.5165250764747658,2.8337539257580753,2.2239119339990507,0.4021309480746498,-2.5563588590945887,-1.9383866428052035,-11.211702903687458,-13.39920035687141,-3.6857516668239336,4.32274659687792,-0.6484159497986841,-2.9252903840371096,0.8049005034365666,12.34577941597486,-3.64643435803545,-5.173826452106515,-11.182403709584623,-13.24594048663796,-3.4411567330985804,4.318562776721418,-0.3551868302681664,-2.887536779381304,1.0361845585093603,12.13386001434685,-3.962122549730587,-5.4659565395221,2.1835897148815313,1.1502604490138544,17.897505972795017,21.045813701423153,11.860894216279606,8.376065198539356,0.04269355005338049,-0.6234437808383051,6.485773204427224,5.001952136001074,17.175712926238848,19.05822866468209,10.366644017721391,8.816402821529223,2.473757515192947,2.0855632697880866,78.88705654435581,8.720910885144285,-12.591019798449722,18.51211534343656,-21.173407723855625,-2.777402617045506,84.57284092491328,-65.47060025578536,-65.47060024122895,79.86398544513143,10.009980755094487,-12.33108817851199,19.943211057839264,-19.227357002370017,-1.8668345379485092,84.28921610990663,-65.45441732117037,-65.45441727564948,-14.09367161088809,-14.003236447042806,24.98630193548738,14.812903786583245,-26.133699171421565,-27.627573872094754,25.297669747198434,-0.9999999822380162,-0.9999999974056144,-14.187757081027389,-14.125118682082308,25.301348476404158,14.81589040394417,-26.164501812026263,-27.56424548014555,25.006063691199707,-0.9999999891823133,-0.9999133071116917
17.718059661588544,-2.1047692389858517,2.4548547307290485,-6.460900517650542,7.746409496783065,2.0782825995809895,19.31330612499394,-4.7004661863221475,7.57100251536977,26.7871668909726,17.772432641834218,-2.318408905883938,2.0208693068087213,-6.0346677142716345,8.254929637214607,1.9605938551005717,20.063413520230643,-5.112105265240685,7.949497451081469,28.487575259289446,-20.146729931544588,-15.90302222878178,-7.437394885165917,4.433571911120943,-2.4609431893046994,7.91992814933263,-9.482191724635504,-11.661193955688027,-20.68808011034082,-16.04094658724179,-7.37085852563239,4.69925939033852,-2.6520122675665547,7.865600232118776,-9.915157028994974,-12.551523345295884,-94.62245306480852,-110.42967847075319,-34.5834394613658,17.06784469731709,45.3641622339961,-1.3668678409010766,88.33914708996052,60.26164504462123,-31.97086073610165,104.56249032295169,-94.07520293920089,-110.5593126029868,-34.02614969469407,15.623545285515442,40.624174100116605,-2.005087717351187,87.85311970817644,64.55712056150306,-42.055507003079114,116.88963967898555,9.75043888415652,3.968104012320012,23.740981969010036,26.405594665603928,15.562499408258391,15.635894256821393,3.7597509906147546,-0.7880832443058634,13.104414209925142,6.572087929124826,21.821664486447773,22.96840722760365,12.613881453146071,14.857423464590994,5.415202979463304,1.1419743603905848,0.741777105407526,-2.653609547463029,-1.2244782787667094,-5.67928643797417,-10.732871047014005,2.6250012210043763,0.9776624023682499,-103.10446295139194,-103.10446294835361,1.042681517284625,-2.6222673284135563,-1.0248990966167268,-6.184356579555731,-9.359798048233964,1.8040119913496477,0.48083519406251485,-103.1011108937627,-103.10111088144315,45.76952963877384,52.57263090201068,-23.79232509387331,4.3478615801170095,-8.94869797287826,44.93462363660771,14.58377679678288,-0.9999996356654975,-1.0000000005247947,45.881440297369295,52.91894432857107,-23.771143799003454,4.360228991195278,-8.949110005766995,45.059204239819984,14.576616364148716,-0.9999999929100277,-0.999990333186937
6.219924859603775,0.42332894499428453,-1.0030812596150371,-0.6031641653851219,3.499033496291694,0.2145114010315512,2.931137951803012,-6.130373795652726,2.813079703002381,2.301068213080162,6.2275523724567705,0.3730522703842739,-1.0909552776229632,-0.5479395483525632,3.9683556336847823,0.6045156180128682,2.5174779281351114,-6.496797526413821,2.885840203475599,2.5467366743975863,6.434740619052148,1.9139895778553822,3.181515733865322,7.093203993579346,11.017809191803899,7.254865355633328,-2.348980289849133,3.8187025332201374,6.203005200171873,1.812027229129775,3.040805673277969,7.224796410342519,11.229481949581341,7.359501986602574,-2.6659012282611423,3.481043281736474,-7.319839289365667,-8.101948527488391,-0.9658480523511438,3.337957467651919,1.789568536669571,-1.1595263187431282,4.882556891717112,4.953296772313444,-1.981722791163636,0.6818430478562707,-7.284794335571936,-8.033605254560241,-0.8264543044669108,3.256483553536253,1.867890082840857,-1.0479058848394198,5.046919914921117,4.9652903540249955,-2.678651091719379,1.0193152182820193,2.3898914754631115,0.8084788493580176,12.87305188811638,17.806346874278297,8.231602111291718,5.264210146971871,-0.2561233951954843,-0.33193019453186556,5.753584992413277,4.030949342284393,13.038055439495714,17.30921796678258,7.951458759604188,6.130338103490046,1.7536634300582847,1.7774227592092169,2.1242528595633514,-9.736360056199086,3.970591578702475,-0.0014750527824651805,-1.172609491119868,-12.670339878837936,10.55092621027833,4.495033564418893,4.495033570261035,2.456840789269635,-9.317824651944889,4.196319970698522,0.10617008735117306,-0.24900997581531165,-12.359372594454225,10.400942244330222,4.499048987760175,4.499049009861079,-30.406365060352837,-15.850320613985993,39.63006690892224,-17.401906968018945,-37.7653599905672,-4.943909931798911,29.531290043999217,-0.9999998554463114,-0.9999999957958357,-30.607653791734602,-15.862978860166457,40.049995911820275,-17.43017866402625,-37.76294404737913,-4.701542708419405,29.141994517643337,-0.9999999863121429,-0.9998880365599597
6.206419739895469,1.4395401217135801,-3.6301159504913563,-2.9109644351328074,0.27229270659495086,2.4713993010213424,-0.8141485189688802,-4.763798122813232,3.6189040613120897,2.941927562379332,6.1671054698988685,1.5258034939624348,-3.5818509062772788,-2.900644841947683,0.36194172685832027,2.667518820845456,-0.7934161698676645,-4.5566313408395835,4.286296153937685,3.1030789351282513,4.6194917633497425,2.8601857238431623,4.095216405550257,6.884748275321174,7.391433427526894,3.8392953689397604,-2.374016919002354,2.1673808971346076,4.53109152079663,2.8752356021947945,4.125646916030716,7.11512706408979,7.611951310767368,3.982247369612684,-2.484235581519287,2.0122604619388995,-7.059746590009201,-7.278788442927605,-3.231394098688123,-0.4749753605978124,0.43410685781381186,-1.193407515317385,2.5211063010416415,4.616489105294601,-1.4967774137639447,-3.390812402573692,-7.041028049119941,-7.205934470115294,-3.1011852871193897,-0.5156530037131833,0.7215776501045823,-1.0307895140541563,2.735610415054274,4.493426035509273,-1.975143942301689,-3.4638947135618725,1.776735925315597,0.5268264692649319,12.290621016427501,15.719497796966765,8.107468614072994,5.982212727334941,-0.1617268219763076,-0.2765042640183779,4.653259872207248,3.2081636383083083,11.9652756441692,14.61008929266239,7.262100871931366,6.351725056162289,1.455012856720998,1.5003970296722615,0.24324543561301315,-1.8711517713980639,-0.8588118964933474,-4.2916137685599525,-7.428653265270003,2.041976439825759,0.32120608564923003,-71.01451040899329,-71.0145104069881,0.44523565051226077,-1.8610882249087928,-0.7218604525637099,-4.645259799324507,-6.489276990998363,1.4637150910630856,-0.020131244229330436,-71.01230509713584,-71.012305088979,-15.661994573271356,-8.076470948704863,20.15886206050437,-8.975606917207784,-18.832223652226794,-2.5072580811539527,14.554288619919067,-0.9999999276782292,-0.9999999978878042,-15.763902076340308,-8.081774399073154,20.3694513115057,-8.990309272423767,-18.830708653049786,-2.3846749277591512,14.359555063917513,-0.9999999931054538,-0.9999469197572499
10.391980003065006,3.856911643648969,-7.273547833544406,-4.423809668002054,1.3544597565078798,4.687406194531082,-0.3670779515761351,-2.308264641284585,4.187930250337523,4.751430062969865,10.357126362089671,4.052260592773485,-7.190944173026193,-4.349503010648422,1.5514615422349656,4.686157642298616,0.2273844608752335,-1.7469403474718364,4.849812970755476,5.0747060796376,1.374060483302982,1.5073314259419535,2.225323842374489,3.672986695524908,1.594377164519484,-0.10891863035439253,-0.4360070032711767,0.3339744926317706,1.3623321252432439,1.548727927122337,2.2907892086501187,3.823623587788156,1.7002616150598266,-0.05120479307804726,-0.40073778150441036,0.3451878351097814,-6.443404388005709,-6.9552729691387105,-2.654052188767326,0.7394878014358179,-0.9605438952249461,-2.9487720485337197,1.3980935589613244,6.115162457526001,-1.3561954113559844,-7.855619743308205,-6.4186116653386325,-6.7857332661705305,-2.3841581839666386,0.721151374859834,-0.42638853540960414,-2.72914240856631,1.7682237967931644,5.711694921318161,-1.7740260222625415,-8.311647200864593,0.8594037722900848,0.24613709090549707,8.228520547850497,11.901144797711357,5.652046098368942,4.389052495623414,1.8227589930253396,1.6756933519306503,3.018054203041221,2.68673546302195,9.113711343932472,12.637666048960831,6.350292644222358,5.427451625782793,3.177668764281134,2.9795739213249117,10.428197149142386,-19.215855824452056,27.240366561799085,-6.910696959709891,-4.6828099372581535,-15.955622257858213,63.946818664060075,10.036042876327619,10.03604288395253,11.535672364258742,-19.584475503692186,27.906445410496314,-6.33952891601856,-1.4210570517458478,-16.293466895825993,63.119721651709746,10.041371228992395,10.041371293700916,-16.147079176931264,-8.332227868750966,20.799457852298346,-9.252829225481204,-19.45511717926952,-2.5874230701077305,15.047026699593562,-0.9999999253018245,-0.9999999978189792,-16.252256287460884,-8.33777328931491,21.01693430751555,-9.267978007237096,-19.453572539351402,-2.460899062936621,14.84589212319176,-0.9999999928819563,-0.9999449825207674
11.091376360135676,5.747399041193582,-8.329858406965517,-3.681353648441354,1.859027148472942,4.660802760001934,-0.7284592990488101,-4.744524353198069,5.126707641912699,6.516120682828585,11.0500149618938,5.936582942472869,-8.249434912733147,-3.61789849441876,2.1689619760569365,4.836060487643264,-0.3511278941863496,-4.287867416841214,5.980887129096912,6.842304575005869,1.9816008383469843,-1.0220146758138604,0.9728265902853825,5.4500763011313005,4.455835631145787,3.772287096700331,-4.499271618645937,0.16951549692403356,1.8493881451617435,-1.0234036102982778,1.0023085504831646,5.6928025435215055,4.625742022217805,3.889138429088552,-4.686156741488089,-0.12006345783979154,-11.016789135871651,-11.499962709763993,-4.869166934304239,0.35615903192460063,-2.4829849774809323,-4.66914421406034,-2.000835329007443,9.22615190592978,-2.0465280494889377,-8.07867969804929,-10.986221486145089,-11.267922807143586,-4.5038067435917,0.4094498262245484,-2.0755475321443777,-4.672612291461329,-1.7034611647616893,8.701740092441867,-1.9685192699558425,-8.76191164697195,2.154162167551869,0.311032943512214,16.528876827257214,21.0241430919736,11.450915394936132,8.1114224530834,0.17284755242725203,-0.9482375668583773,5.010249027654553,3.034975318202087,16.155710270925574,19.813044247125312,10.472493516641313,8.343234635996389,1.732447780168857,0.7418235500338525,17.947103798565216,-6.869646988429972,-13.63540104942747,19.227131146319106,-10.660118199695729,-30.035462609577912,2.334970284035976,-7.370722228784181,-7.370722210066865,18.59190231017208,-4.321714533089064,-13.146535653789554,19.374955658877877,-9.095947269250528,-28.156832631625058,2.3099415042873654,-7.357062424884967,-7.357062390155313,-32.15063682807691,-16.769973745977065,41.93352726556648,-18.39874554433386,-40.005166377579314,-5.232167950991829,31.30308225256284,-0.9999998469012131,-0.999999995548354,-32.36368244463325,-16.78350207085664,42.378221341982965,-18.428622505080657,-40.00264385193633,-4.975630168639971,30.890769877012946,-0.9999999855084883,-0.9998810706268454
9.642793617227724,5.006862412315563,-6.366437212892682,-4.458167752278762,2.5601072199231005,6.4798635246200575,-2.841694449935118,0.45016833653764554,3.6425000713763946,8.448852747169902,9.59783425026691,5.325604381995004,-6.171045965206306,-4.387211303211136,2.8823344924815495,6.363865508512186,-1.9730837771500391,1.4104138206575043,4.342118286721747,8.81415525257778,5.2925758600795785,2.6725256762395757,3.733049745068889,7.062645629122753,7.0235096863379685,7.106824584051115,-3.260656980700193,2.761224944400505,5.006795119809833,2.57808551211515,3.597638063564369,7.177234908410741,7.13378562481326,7.126594682396764,-3.6700851595536896,2.33372124080328,-7.451656750251555,-8.467024296060005,-5.1155688631474385,-1.3730154721994279,-0.38866625709125513,-5.384932629860226,5.133730170786756,7.820880470941199,-1.6822007880183043,-8.644228933458367,-7.391048462171836,-8.172888337510054,-4.619257037948288,-1.4469267007585156,0.2855499839537124,-5.054157845728789,5.73680610730871,7.193668145654993,-2.6084486674153777,-8.966771280754783,2.8826995026129376,1.6811716977506808,14.404501101194436,21.426656771788394,8.62558341974254,6.635767351607008,0.342550209103779,0.4691509459063061,4.832497830286183,3.7951946755501247,14.662177169502556,21.324376740156968,8.503632060110922,7.094521812730599,1.4382773856750346,1.5711491131356956,12.856680345981594,-4.636776872203111,-10.49832794050012,14.091315024060409,-8.014006534066716,-21.341911575604673,0.47301608133790696,-3.2100269562819244,-3.2100269405507964,13.420732012244558,-2.512270413681338,-9.938556670464708,14.166312944713908,-6.381979185213345,-19.851889303927642,0.4030414738585135,-3.198478275611175,-3.1984782451839493,-25.800430970017388,-13.421879249342243,33.54753620543713,-14.769649273909094,-31.850914326431393,-4.182734143724551,24.852685318852494,-0.9999998780105472,-0.9999999964493372,-25.970674402596707,-13.43223996069147,33.902070412364175,-14.793682098586565,-31.84877982548854,-3.977785780099355,24.524168217233225,-0.9999999884342777,-0.9999064308431191
10.905129097157838,8.12963075732088,-9.626958953052387,-3.713811216520267,2.742682747292262,8.473940411130192,-5.146086867069867,-1.3498878947726975,2.334526974073483,8.29087177159346,10.83393057672954,8.57558159583859,-9.376126343838214,-3.635712363175281,3.0314853595577085,8.65076762487025,-4.79726279735022,-0.3268955528522192,3.025011228823131,8.650144647307394,4.683834049314146,-1.876781518691061,-0.3133186215750525,5.019565740137074,4.225903960892082,3.995917705244528,-2.0334782863232164,2.4785185655172235,4.592272156165908,-1.876288807693738,-0.2884306800180649,5.269232458393099,4.409606421659845,4.1186772125332975,-2.1756543252626495,2.220644221199272,-9.805991834731712,-10.5401893150966,-4.569096833963447,0.6927670941611224,-3.002496063566324,-5.994190769982024,-3.444521378877339,8.837457096758282,-1.8506780657881665,-5.627029179750139,-9.7643661194978,-10.259514723027825,-4.122930636723642,0.7804747464916085,-2.8249445617558555,-6.189855059566579,-3.229818770679809,8.243334855419347,-1.44973901514497,-6.258878881151174,0.25514868634104426,-0.6614472281695905,12.00977617019505,16.314907779533375,9.249834770661957,6.339008597979029,-0.015698483940718266,-1.879285885303236,2.4688144838634942,1.3437699928960631,11.379003831116908,14.909987935500443,8.085255819610008,6.287109165948631,1.154788790587754,-0.575609376052983,41.763972310137184,-5.973442554595228,-7.033661109598642,13.78099308383529,-14.88727993631049,-20.80648930875829,45.53906734940201,-51.3550572176345,-51.35505720606484,42.41008769008256,-4.92285417711114,-7.113811356537395,14.494715675012502,-14.01621224340579,-19.993251553128495,45.37735350505311,-51.344430915915964,-51.344430882544735,-30.015320349869313,-15.64414546433374,39.11365885546304,-17.178427771894313,-37.263222390019365,-4.879285957630637,29.134075582322325,-0.9999998573620195,-0.999999995851318,-30.213973329274612,-15.656608649354993,39.528035827316764,-17.20633958689172,-37.26083034133329,-4.640095602806405,28.749940156184692,-0.9999999864923126,-0.999889598238219
15.501898724819966,9.100197276892603,-11.917526195597212,-6.0833602531658935,2.514953858714674,8.863874090853951,-4.034238097812584,-0.9470204678573132,3.7627892398727765,9.032646894387883,15.432630795738831,9.539550028985266,-11.675831727116918,-5.984289574151861,2.789856125366221,8.862893502026747,-3.2732762403993987,0.23481770733549107,4.61535813089214,9.488470684823168,-1.3281577795872441,-1.2104377718236745,-0.2781161615545876,1.468750241006751,-0.8860510710707624,-1.9237287784560928,-0.04426024644426049,-1.234738159207967,-1.3238672803919016,-1.1822899204281023,-0.22001158326492587,1.571300642588151,-0.8321490067694968,-1.9030378854979477,0.044880352343102003,-1.1779882999467433,-8.63007591586018,-10.202322443906791,-4.423380919022237,1.6055810599192721,-2.9973253001324767,-7.092748422692487,-1.7071927927156594,10.533162161011079,-2.1314312396955786,-8.057157653676654,-8.575647982945537,-9.853428759298314,-3.867762679642165,1.6631992109611757,-2.6180820542925947,-7.162685651700859,-1.3223674534478327,9.789548660027194,-2.0385093612571574,-8.76159099257988,-0.2897080584183672,-0.43201190989510724,10.81760510768078,13.607520103138489,8.47986168731374,5.437700719243923,0.45445517143664704,-1.5336934451557613,1.7798743812909938,1.4305877421214404,10.2677017020758,12.337557734977192,7.4541786548209625,5.427428896881724,1.575069138657564,-0.29529627920580037,23.079983953263227,-4.807631040982866,-20.40573727722608,25.97292715263555,-14.063470464066835,-34.533979726354886,-2.177900746898701,-10.475597402591747,-10.475597377930436,23.898958837059798,-1.3139216464099468,-19.65173303565491,26.09484673880682,-11.875511764101143,-32.0349107745869,-2.2024491965915516,-10.457400294446275,-10.457400252025515,-36.77965219946388,-19.210584528713895,48.04653877878923,-21.044194021995143,-45.9492505428227,-5.997158147164432,36.005132426227085,-0.9999998242239033,-0.9999999948915776,-37.02389868918671,-19.226421901843295,48.556955357920984,-21.078331095925996,-45.94644516456965,-5.703013991472166,35.531737052780024,-0.999999983375719,-0.9998625841661578
10.088668807961312,8.241258087636943,-7.467580227821745,-2.385884620728828,2.0137237202132208,5.929933260511476,-4.193039435125583,-3.727589584012095,2.8003345853278283,6.906397604361445,10.026623830220245,8.542372682814406,-7.285928090311818,-2.3535161391799875,2.2825289254257557,6.213453562369285,-4.163159892637212,-3.0771243032513182,3.5348435190708853,7.148432962393651,7.766477332124908,-2.9272635560730316,-0.749638474508528,7.802470405948298,6.251055854880561,7.414476634342005,-2.2421018407014324,4.457462375930073,7.493628850549271,-3.0186167738280227,-0.8563489029721594,8.06955859237861,6.453693058113495,7.490322982170856,-2.6217568033588394,3.947867192295252,-10.016277995080282,-10.336932770000242,-4.394958680932416,-0.23522363318569628,-0.23818328824585633,-2.6540370608422728,1.6300650494441746,6.858373754292777,-1.988426874563943,-3.87467197760272,-9.985955970524214,-10.20103407066094,-4.161383248523379,-0.2524462517712104,0.028073397922978194,-2.576310735660202,1.865503264585522,6.620055364743834,-2.336102767828583,-4.044387199162739,0.5906566358267923,-0.7946287210894851,11.257272141058333,14.64757804144722,8.238457835803068,5.804632336742886,-0.03662956529938699,-1.831458895276728,2.6073073704944187,0.9832112663675493,10.616842607446422,13.277197768044953,7.107343004156515,5.721969022578419,1.0312622700568708,-0.6343969975422938,32.449670963126934,-3.8690448576307475,-5.422526071265471,10.595754872986008,-10.696471999423022,-15.065471555469559,35.2603736769882,-31.634653583763853,-31.634653575241025,32.92102586722903,-3.081811445421515,-5.4869763294701706,11.1901029820346,-10.110739660399867,-14.400509557135852,35.171774201820405,-31.626796940023926,-31.626796915663586,-32.42896813340582,-16.916721667610215,42.30108760776861,-18.5578098525924,-40.36256953396619,-5.278164929351557,31.585804960862216,-0.9999998455376823,-0.9999999955088636,-32.643889781700885,-16.930388829880002,42.74973341657365,-18.58794296346363,-40.360030001091665,-5.019365968295212,31.169819814933717,-0.9999999853802503,-0.9998799590814472
10.67252573820365,7.692778234967221,-5.930872549751297,-1.4254674412765203,3.110642575458079,9.91752810007875,-6.548633155983549,-1.5893237103836992,1.9894027647910106,8.01862583129695,10.583305789929497,8.22862929232672,-5.631346432292279,-1.339900508604161,3.4058384692980117,10.198214035535408,-6.325325155246689,-0.4468658383605662,2.677164520606717,8.399368216324335,8.803815993268511,-0.45591995311061806,1.004540811268992,7.351268120272382,7.0890489069154405,7.922589687712504,-1.0226155295976536,5.79174148424724,8.672436108498166,-0.4590076281873492,1.0262525608279627,7.661749902163962,7.309218491666125,8.083632446746215,-1.2585129362469447,5.3998794519682125,-10.157183298823814,-10.476364217985893,-4.483480632650518,-0.13613806451553645,-0.8936843281131428,-4.47519174928438,1.9468547162565586,7.50424257896417,-1.7763876087200927,-6.227294937936272,-10.111426495710095,-10.245858043082828,-4.097134080829333,-0.15354552054417026,-0.47594379203215403,-4.352346657212525,2.327183104477524,7.031452850179344,-2.1959189903967786,-6.558861087628821,1.3422699170991623,0.4136349097342066,11.250049863058065,16.49186666065579,7.430924179806173,5.019260097945591,0.03651617144465036,-0.7699675293576398,2.9236877521434974,2.0390628544172738,11.174647783863342,16.002236983665885,6.982856391293881,5.172434448378563,0.889148432592733,0.10871563990079036,0.09661790196509035,-1.6410162336992562,-0.7512625410174925,-3.883473156127639,-6.456820715148497,1.8704978941296,0.12812994525521204,-61.57625225758988,-61.57625225588856,0.2695155925085526,-1.6372111447280204,-0.632731091943913,-4.19258250998844,-5.6450027985877345,1.3636273770415903,-0.16747488905212538,-61.574384225216214,-61.574384218283726,-28.10302458017583,-14.635903041086493,36.58830840424585,-16.085564705583522,-34.80765763338492,-4.563260323963419,27.19160835450439,-0.9999998667302588,-0.9999999961226395,-28.288788145098763,-14.647412333574263,36.9755347071489,-16.111716622251226,-34.805382434137925,-4.339605564267451,26.83270696824508,-0.9999999873733824,-0.9998972351928915
20.743546023778215,10.528451232524967,-11.270353651208852,-7.497588282584859,1.7355692072868625,8.897584382691234,-2.7315089563933697,-0.29329092271442414,3.6830955575026603,11.240627902975788,20.669787543141936,10.93407075568656,-11.05162221927292,-7.380523639556634,1.8210378363990096,8.727101645120754,-1.8488481957764946,1.009298945977862,4.612302449138603,11.843832257235466,-1.355309535980978,-1.6974177899678904,-0.5792088463296171,1.6612792266675958,-0.6422975241598281,-2.1508745132784552,0.22912364335475882,-1.220592917054521,-1.3490781539741992,-1.6712962514570537,-0.5203697388508312,1.7761606290776508,-0.572867949238818,-2.123525204548735,0.3382724497431486,-1.1496778566277197,-37.1852140086487,-44.61194398832635,-20.364975101781543,-0.8244949875861569,19.871527232515575,-3.8738856061661022,41.16854476216279,24.884462005280934,-13.274996725919003,45.54412985129112,-36.909985641689566,-44.51086697889729,-19.839708475965196,-1.4831771160773664,17.86581723958549,-4.113217742965463,41.17558422770787,26.403667604206223,-17.946769972249978,50.99938083567865,4.166265616236447,10.877232433083355,19.610118648164693,20.668329567461882,18.129773083971287,10.692663402511194,-4.844017309409776,16.259986609312353,27.547898695456027,35.36844563694483,20.256335058741797,15.864229888467195,15.455590420460885,15.638592883560861,7.252899437961602,30.925261687910467,25.190312085692586,-28.63659348615305,-3.5820365088641286,21.87993450599146,-11.04763455567419,-61.751556886982804,30.713044319686336,5.27973332520173,5.279733346686602,26.065914444793215,-26.34396012050926,-3.6281833702803405,22.50447164185018,-10.093343117273442,-59.54945560145461,30.704616158849426,5.2944880227430335,5.294488078872046,260.3308575964318,-56.6527040348992,-169.1850332839237,4.95586248347677,-217.11773912348042,-47.80627715232025,167.61875018362255,-1.000003012563656,-0.9999999996646445,260.6819221076003,-55.43803943885025,-167.77664921682435,5.154238289164857,-217.1230204586385,-48.14251338984052,166.1774063795002,-0.9999998932871625,-1.0022526248992898
701.7537450449571,-32.35365342280818,46.36638786497776,-164.02875634757373,-364.5700967729291,-68.27608376893956,-163.30029014928633,-305.99088921299114,120.13384022569275,997.6210533821964,696.0155877767169,-42.26281581138321,50.641963713315455,-173.80895735325598,-417.4043117698178,-83.13331275378567,-186.95139897254737,-274.02452278345515,220.81231290274494,1012.1352919998925,-367.0656839420323,-471.287362409091,-253.38411007855316,116.80489251192222,295.3790462476216,124.95883474870041,-303.9375639490468,-271.1342193803785,-383.47738830423907,-481.30836175221236,-263.25020499132046,118.65268024866252,300.0734566907109,125.54514350820956,-317.64464086621047,-289.605490837442,-15831.225334669789,-16762.130512918455,-7222.11348152989,-2336.9306950260425,7167.912042553951,735.6208598172591,14034.977001236428,6860.206978082924,-3923.9634852796626,16467.676988445623,-15801.66565524984,-16860.88101248493,-7192.493390221579,-2225.525410501494,6414.4232753833385,678.7589008908974,14481.588542052983,7147.951451450149,-5491.676314231288,18660.70746643698,-2605.11004715987,-284.0187967741277,2604.173045023251,-662.4339435580173,818.439063983767,3846.616276920832,-256.61889417733596,673.7732555627002,5807.791993259153,10398.620903548088,4952.903884818863,271.1598134258161,1917.3475006752512,6191.028920201622,3537.2034445281934,5197.9033850694,4869.227239529926,-8745.315988659195,1643.8093226043954,3530.925327646004,-2141.064356962403,-14973.403919447443,10179.462581249176,2035.1407079835844,2035.1407146090617,5200.595146649058,-8140.374759491651,1816.155634006837,3665.275714702996,-1358.2563687793966,-14484.461079702372,10073.14608329265,2039.8555585546112,2039.8555798785962,33658.47587104511,148.91607879465224,-24015.484113657007,4762.51831186851,-23605.359458396542,-2400.0235508668698,17241.23618155628,-1.0003501977458802,-1.0000004330193153,33701.20847514977,281.55614550617156,-23907.89888143892,4801.429618826735,-23621.67528991379,-2482.184246896289,17097.123771004655,-0.9999879491771182,-1.3433123879095452
21.05915073127167,9.711989376833344,-14.367313572740244,-4.837284860042797,5.276498119724646,-6.658614825941316,7.325501223225262,-5.6132758360719555,0.24702631157669913,15.636460252920713,21.14109273134995,9.222872442261622,-14.62518484862797,-4.859110522014084,5.936788052247804,-6.655579871972307,6.502284157398946,-6.356309263818264,0.12177740369036114,16.044007255497306,0.7250680543297103,6.895229745417323,6.114477924701745,2.7031644107789536,0.7566998259151553,0.8265688559400695,-0.36632651592040955,0.2897612273700072,0.7198706257369905,6.9565966579895315,6.184409746704748,2.7284848885462294,0.7368779346719159,0.8235239224792443,-0.3797460726407416,0.3242897563467115,-97.21910124543614,-91.25374694832894,-30.591261612092747,-3.008577570671394,8.44462426648044,-19.616365362012445,35.22104275393692,39.27129676950418,-12.368089814152064,-1.3770626387030216,-96.85372577638087,-90.32538626542244,-28.745500598711743,-3.520448508700087,9.33299967545093,-18.9720322799002,36.93529503325589,38.254297101513984,-17.332117854224638,0.5745767523009455,3.5403472737130857,2.8939821639592367,20.567421688040035,18.670619495507882,11.6556100449019,9.78713274138027,-1.7138098674034654,13.176197117006783,17.72289103891007,20.142699861261363,26.86312140230636,23.431431509636464,17.25498759268444,16.157689458961663,5.581680099274011,21.629930806159027,51.51771103830274,-89.21614826013796,13.661011020809003,38.48963612115541,-23.66782439685625,-155.4678654766344,101.26326547256106,23.62258402560555,23.62258409838568,55.09301257180549,-82.33330494429588,15.755945047523367,39.82790612325059,-14.851987932128978,-150.05692642294338,100.12073340418563,23.67449608914352,23.674496316958002,-57.375036112174634,-30.069333532372063,75.24450829858382,-32.81430551384909,-72.39562964740797,-9.400747359034778,56.92546228774312,-0.9999997233281698,-0.9999999919694524,-57.758101315969554,-30.095444307372638,76.04733699271783,-32.86739665457342,-72.39156580323345,-8.939285181177816,56.180296852781964,-0.9999999738866164,-0.9997803343301772
5.849679608724899,5.935143520636265,-10.677198914352092,-5.271258464278662,0.1677606859628323,-7.255259537831778,11.74081826161813,-4.42719156180883,-1.9248235646236493,9.614372266410827,5.929812856265524,5.396190214670601,-11.108703032727734,-5.1973967759510185,-0.0218654490168817,-7.135009864123266,10.646737704007881,-5.730554142663395,-2.3061239575680688,9.99647965142973,8.048385040503112,1.7536474089116711,4.092805808647128,11.337595078087638,8.947944261695708,9.207901921376914,0.41379906348924644,5.793903068080127,7.778708713382814,1.709047777913818,4.072140886485255,11.662083194895153,9.153701166884726,9.30840850207062,0.12373123123367352,5.357717398021944,-9.449256020516618,-12.516507075623192,-7.4311774321247315,0.7759625039258187,-4.590444863484514,-13.521768805392188,-3.796320196526295,14.091880618892606,-2.745253477629043,-2.857268797593204,-9.331906883200759,-11.900477129606577,-6.420346440436685,0.9083931074809893,-4.729600909234916,-14.099911395153907,-3.451075806332728,12.92715060650305,-2.050308882712802,-3.439168589197921,0.3051737540871736,-0.25024549913137806,9.5118299233803,14.561896810061528,6.585055096177342,3.5018042006342247,0.9467143835986173,-0.5517286229765683,2.080269864587537,1.701236385687365,10.076387606630814,14.935643787031086,6.930963122210191,4.189962594828287,2.0448560764923043,0.4813810622513547,4.883607857923625,-7.634532849310167,0.5063809342871833,3.2588854003907795,-2.1550824245323588,-14.001833961315729,8.220829270614132,2.7116421313614527,2.7116421350408553,5.04410628687268,-7.314185925388622,0.41347137538794687,3.4219236660725856,-2.1249729092642253,-13.613257716075436,8.23051596875942,2.713950514784622,2.71395052582959,2.566982326596051,4.327693296086665,-7.65987839007211,-0.967126062581553,-7.395650393264162,3.5391523846466377,-2.657032725255883,-0.999999874354417,-0.9999999999045239,2.5597572337430075,4.323658551899654,-7.649598486772176,-0.9567907184345433,-7.407405036283626,3.5558301485569244,-2.695323873672221,-0.9999999978354911,-1.000042771058176
4.628240301186203,2.260061389144173,-12.212613793749886,-6.294060792824934,1.0425992797062364,-4.059690943102193,10.597940752290544,-5.219770698845788,-1.2387253921235695,7.594689379535294,4.6858563093864785,1.9019847537662784,-12.583966283695792,-6.165353711655297,0.9290443579241746,-3.7767324126212527,9.563478263297402,-6.30911077274427,-1.6033386471583801,8.064585796270899,9.722073049551367,2.396149073282049,4.508101847545614,11.939650342296568,8.526430960361754,8.658832491755796,0.4006203774184601,6.466061751094989,9.484796718317199,2.3792211400636365,4.513896209632754,12.310424945619703,8.768669377565942,8.777715322168072,0.13184617665869752,6.055153268461745,-10.903045686711797,-12.948252977428877,-8.214833396159555,-1.3931887419109192,-3.743373037490055,-8.830200269866618,-5.187872489778711,12.168237047139872,-2.8257328270959055,-1.7803412907563745,-10.834999379437038,-12.562605703291531,-7.586236451717062,-1.253863874716599,-3.9401267395176154,-9.360659527972086,-5.0768968306375895,11.460530140077273,-2.012710960246697,-2.3027552863138565,0.06282694579011883,-0.5857677047252392,9.553567094022192,14.299175103787897,7.210849946632829,4.4224678971854825,-0.41741996407296916,-1.467202951281245,2.255581620748355,1.4693018516929244,9.399830496724334,13.60180599008812,6.688225842817508,4.778752481287775,0.8509181223630375,-0.12087433786602342,-5.35319150314517,13.380863163348298,-8.368043886145411,-16.91564978460931,7.310790357686765,6.122253110298534,-3.8369068733173637,2.6683816340183646,2.668381246666658,-11.602066820131178,23.72278639660724,-7.97540024885578,7.211138453726933,18.06372436461195,13.848811377655204,-8.553096883164693,6.521828617045467,6.521828615601798,-2.0299362691409506,-0.8890788537010454,2.156560776915346,-1.1849851554039776,-1.3273991044142641,-0.25442672942126515,0.7071490073469813,-0.9999999944609864,-0.9999999998219551,-2.03995984268688,-0.8875823524936235,2.1736028225118447,-1.1871418380205112,-1.3267170822231718,-0.24259116117214474,0.6922997079137583,-0.9999999993862787,-1.000001360818623
3.8823039849150653,2.5121896682731975,-9.930197722934516,-5.298607164413455,0.3328148050355787,0.27083574078993145,-0.20299345349170342,-4.440274018541843,-0.6515361703776894,7.885089576393821,3.8588540970109246,2.482316818464487,-9.940769416696927,-5.309772717712966,0.2644632146013707,0.5741240080159541,-1.0387032322586494,-4.544947594034498,-0.3479726407702878,8.072777146132184,9.32690088462464,2.3357127958144743,4.465133291438438,11.882264839674816,7.9876814231005495,8.876567868643956,1.1999978222667977,6.584474764444812,9.081957119875359,2.3168315886547868,4.474366467555008,12.242414251891146,8.200444390386721,8.97689478161874,0.9383598658086971,6.171577718259043,-10.139359438409445,-12.281664856006895,-7.307961439958799,-0.25521618227832754,-4.30535275671809,-11.215179331072228,-4.533378768589956,12.287055295336476,-2.433868972819941,-3.0765556946147625,-10.047406533521894,-11.775668337119916,-6.4812911258779655,-0.1195485425655568,-4.41669682701473,-11.736922106777108,-4.277679071806802,11.311461326108398,-1.6873458091642146,-3.6824652769373825,-0.415591007537919,-0.5700423984125385,10.56090355454044,16.260492714347826,8.202217206859707,4.480789208808894,-0.29397102850000806,-1.7549481143915138,1.7524719471737469,1.521711653956137,10.580983710188182,15.806900871023258,7.879381133144507,4.935713418137094,0.9927251362817742,-0.4380949515737599,265.0174521082453,-29.980951447487264,180.1226235358191,309.6079314232746,1.4453416613392418,922.5617725814358,3.5322924325770435,96.42575763020062,97.49268813578526,277.3081115125335,218.37527557851342,120.61526687102361,-90.31212960227384,149.418174419644,186.45546891548196,-264.6085370787477,-232.29118884518886,-232.46666535144573,3.5388595705369923,11.797307103028897,2.631717667510357,8.061931036990535,-2.346739059353439,3.5596798346060963,5.903756994531441,-0.9999999747204128,-0.9999999996263589,3.5521657685510837,11.8249163959032,2.68574345510215,8.078014033686115,-2.3473259758126175,3.5892573099439335,5.890100909097509,-0.999999997153641,-1.0000261002265232
5.137016060737241,0.7691737954590543,-10.877025980517914,-5.781227768184297,1.5585296001793276,3.0005643361477174,-1.0364789106872832,-2.864642331731494,0.9051469253951401,8.022973853341554,5.106264670573798,0.8905509777577635,-10.812985520201185,-5.747517800312638,1.6734680470183276,3.1781857025397904,-1.259561396404024,-2.5632053876928964,1.3191190866073286,8.310791450548972,7.742933976502602,-2.332019444250238,0.45213772365964044,9.957321498253393,8.157967862140353,9.88220052323485,2.224298794556105,6.497836088070322,7.442611979524575,-2.4255665512383535,0.3830563228327649,10.253716434294034,8.330116925948078,9.955132000633075,1.9240121278036508,6.002285981280628,-10.844232839431143,-11.834157616574721,-5.479675049716674,0.7017841081385963,-4.15614699793235,-9.888923307954597,-4.465646998892274,10.144731252155026,-1.7895095742418368,-4.465026398909945,-10.76594788211202,-11.382398838946594,-4.746057426335129,0.8276283178464588,-4.1398774404884815,-10.299703724876638,-4.199775111971824,9.226333460130235,-1.1107149743115925,-5.1374900444151095,-0.5575241050449935,-0.6636816588048736,13.10137905074587,19.31516969465842,9.196443862818942,5.254137537721943,-0.22307563572670863,-1.8484731360272542,2.1545664091221997,1.9141320104068096,12.988542478976374,18.552834741539517,8.624258386608911,5.732671156408735,1.3682686045565167,-0.19168432857799467,196.68075998988985,391.5759756705188,291.47112704980094,327.7776994792331,41.33018627004605,2137.7881691756065,-72.74422485577357,171.09343265905017,171.08853254787974,249.4908697821373,1156.3790734459096,277.22809932819234,-318.23632308305247,333.6922921281311,909.6956024891466,-772.6115842750487,-123.21253105613043,-123.21154220881644,3.919603497489809,18.643177652191238,2.2288189096809496,0.8996963148627897,-1.062747223432426,15.527898665581565,4.476987477974796,-0.9999999384593836,-0.9999999995981834,3.931143929896222,18.72988372291419,2.268521346106974,0.9143041081155713,-1.0500245343270165,15.598535007113634,4.4903248592146285,-0.9999999974453446,-1.0000455336740548
15.229599108973218,7.633367785979569,-7.767570737498552,-5.8246929479940075,7.1260871464500415,10.877362044654975,6.286538981613375,-1.2664659097330502,5.682004080140586,8.039279758520298,15.217293704665302,8.092038645817338,-7.785267864528547,-5.429953167467483,7.7792431976764345,11.073087478274601,7.391341417804128,-0.6610754908339951,5.806724439734315,9.084639116662908,5.956863761471217,-4.41555077511454,-1.4868801724765388,8.000356265554355,8.960054268983637,9.229957415952788,1.3691797658302283,5.251795766038745,5.639797970629231,-4.559959591827671,-1.6266509741892747,8.215870361975227,9.127296191106758,9.29434642918961,1.0514841417734717,4.762966074689239,-12.631594443494615,-13.500752273391718,-2.077498014414865,6.018567734780419,-4.298820097681119,-10.24815222779884,-3.6630302021457424,11.360231177218836,-1.9294083104675295,-7.231033379583557,-12.548122694652415,-13.013620172291438,-1.2955354139458002,6.125212640962642,-4.072925290519421,-10.539520459838682,-3.276481656823343,10.354711451245436,-1.4510261185038733,-8.031116420427331,1.4660996214480035,0.4018846054090266,13.288446928751084,22.005878088313914,8.82651588031142,5.79587465699241,-0.23740164400423136,-0.214699872895028,3.793049224243166,2.905807972939517,14.131147892849693,22.69191394918504,9.465178418810005,6.882551079004991,1.2565789707968908,1.2024494911660666,25.406668007556803,-29.5046338844117,16.87204030014785,18.49154612694979,14.53892893451769,-53.87243601772009,60.44267452990837,8.546438222051721,8.546438245655187,26.229626495408016,-27.5432342775661,17.42785183596098,18.923187924634675,16.740342342918,-52.35989602004133,60.07405216264678,8.562027291228654,8.562027365380175,89.5087196593059,-19.153524854666962,-33.36384882987829,24.669922984947757,-43.70151462554608,-31.711913426515718,68.61036305332178,-1.000000555061738,-0.9999999998624538,89.6424584845352,-18.964657082109504,-32.952979593485445,24.721788883705454,-43.747936031379,-31.81959188407025,68.19499498062747,-0.9999999694038879,-1.0004398263040115
298.9938214200896,-0.5332029373089995,25.33973510008835,-61.63160830227128,-157.23639730684374,-33.70723124148624,-48.04575688287153,-128.433050173448,75.93790403810878,417.01048093763336,296.7243456688939,-5.210413459670953,26.61019505272385,-65.5208355286621,-178.8720933406558,-41.308078146994895,-52.6281404628581,-115.54942738114262,120.52983924549551,423.25735363324213,-179.63306278243655,-218.61669130418946,-116.18102092750213,54.1527617626863,133.492568382334,51.45581264933064,-146.44085560508384,-134.1744163028502,-187.30408364450653,-223.26171772504316,-120.74576283154224,54.98704433481437,135.6463246675239,51.656266316246175,-152.74956900228662,-142.6115157107298,-5319.091647883606,-5612.120002784763,-2430.383679968429,-717.4881092364043,2284.4533084353984,165.50728908855103,4471.008826795923,2297.6786157725337,-1315.8527108961378,5197.654645120923,-5303.880262346682,-5637.516617005352,-2417.125238266209,-718.667649336189,2050.777264137865,147.06690859460497,4558.112110113333,2431.3112245430466,-1820.3385523821341,5867.35079720216,-1147.7216253660115,-130.62481800751775,1210.2597805168316,-265.3412800596289,416.737164196257,1764.0334307721876,-110.38354937275203,330.5793102794121,2709.509965171037,4755.850400465219,2264.5326251785955,130.64730086689863,896.0344886203276,2823.8723588993666,1626.4993375855968,2406.678153633308,2209.8141502278127,-3950.4959627521926,737.2750063355204,1606.2818056619083,-962.6138102098122,-6781.350082226295,4601.861170303056,952.7764226389172,952.7764256003331,2357.6858217190747,-3680.4898790361267,811.5851812546425,1667.8247991780347,-618.4843699576968,-6560.9817031174025,4555.290373613285,954.8806531701915,954.880662701696,17116.61078701812,495.62055616258056,-12047.67218811354,2282.0891493795984,-11827.397752826324,-744.712040868635,8777.691017895502,-1.0001691465466003,-1.0000002064514633,17139.173936523996,565.7231030334785,-11992.446158636836,2301.0086321839412,-11834.928402813419,-782.534686061853,8705.713904648484,-0.9999939452780826,-1.1671131102339631
374.2952613895357,-14.923592803128741,21.234201402729806,-89.58459750836393,-206.42766753327214,-44.102876173427696,-62.40242217510064,-163.86402412977466,88.96504012911296,532.2912063144312,371.35186370296833,-20.957861181332483,22.82941662649375,-94.59656794524588,-235.23837819378065,-53.721419151897436,-69.75628386557615,-147.49906145443708,145.53920662153743,540.299665569389,-208.19809846484387,-275.3241268329777,-149.07187932938615,68.54843566514882,177.45980755791652,78.86087949202542,-163.59497681890022,-149.07170120017565,-217.8381447271432,-281.298786184104,-154.98338325921353,69.45582035880969,180.0990572888934,79.11747489765604,-171.51163625560346,-159.80037880996773,-6752.935713299703,-7147.488748290599,-3105.5870010234476,-934.6196809280259,2973.6302005631155,243.44338518137124,5814.567045075478,2930.3968524501515,-1688.3203542210463,6774.504266697329,-6734.464863757542,-7182.274944119043,-3090.2199621397053,-929.1659945806697,2668.3737455662795,220.14494365610955,5938.0809929275865,3096.837339844228,-2343.273813848106,7651.337429019607,-1478.4003780030241,-189.7275755167863,1515.3835448243015,-361.10781714840647,505.890797162108,2224.6180171237584,-158.30440784630494,408.1825078814346,3394.6188196502717,5993.97877490822,2855.7923350931674,149.69162097598328,1117.2777134440762,3565.058431076155,2033.5566243406452,3027.2296588128274,2937.456132403486,-5240.819888349187,971.0003922992674,2138.564125368894,-1283.0656494542018,-9002.861801605384,6101.425866770292,1255.8154446035014,1255.8154485506795,3134.4443198506056,-4880.27838775381,1070.9323696292936,2220.014096259522,-822.9617783884112,-8709.34724003737,6039.241369541184,1258.621359142517,1258.6213718312417,21307.600740440503,583.4002338671512,-15272.769402449912,3261.6497542663055,-14953.15095349888,-1268.8284829936442,10861.567121011149,-1.0002261335536713,-1.0000002867497713,21333.721292471648,666.4635130317424,-15206.672119660208,3288.0340280470036,-14964.279680092368,-1323.2995501329144,10771.250347646956,-0.9999923047476316,-1.22741855209216
10.719393370597135,5.891317105665273,-10.422951095854291,-5.269977813596354,2.2030055361541496,6.868780076682677,-2.2094951952474338,-1.8109641601789042,2.0062135509588397,8.946028523238406,10.664032327800543,6.216591122132544,-10.273200966954454,-5.1703302761778165,2.358911026357175,7.006299818551973,-1.989210354496935,-1.0465695852823362,2.59240536801923,9.393965857265233,3.1165421429723836,-2.3121017595835287,0.7580182402728637,8.8369924578882,6.110430701727469,8.735489053402711,0.5457114553521493,3.295801562005213,2.771611169162194,-2.419743537975754,0.680193650628519,9.061844582571556,6.191308787837024,8.745732154306257,0.21771403314458943,2.7929135276780097,-13.291006078491488,-13.016834449091084,-6.942009714715874,-2.313674865747558,-3.0883713542278857,-5.916739469678445,-3.774425516138921,8.541848691527395,-1.7812594001046156,-5.759287208073825,-13.250802560977492,-12.747719296314887,-6.505862865845193,-2.2173428649050932,-2.90568662264579,-6.121154614652268,-3.5705554084144917,7.95296786368543,-1.3381602794494518,-6.413597040446808,-0.010989881758219688,-0.18899312774054444,12.450602757858967,16.84667040816163,8.45204959772302,5.617333396274413,-0.24075489168256758,-1.17514524254622,1.8422684441663573,1.595771880884946,11.977379108253064,15.715595958632308,7.4764919815546005,5.5463771479082675,0.7136213973744738,-0.11971658345429548,16.375137654918017,-14.281759935166834,-7.572157909761294,16.092796437964328,-10.509152462113295,-35.09913586754996,11.22276229063895,-2.114789295130573,-2.1147892680106954,17.54391020459467,-11.074065716085789,-6.333954732317171,16.209496142245918,-6.733452599007407,-33.0057771071185,10.844173393767727,-2.0947489593441326,-2.0947488918516193,-33.03865850233936,-17.23817596602274,43.1062359915544,-18.90624344568646,-41.145468396234044,-5.378922243275808,32.20511478706105,-0.9999998425508404,-0.9999999954223593,-33.25768963620441,-17.25214725441145,43.56353815029843,-18.936937658600023,-41.14289160867395,-5.11517012441016,31.78108436313376,-0.9999999850993418,-0.9998775242187101
