time,data
2024/05/28 23:19:23.452518239,"[3, 3, 2, 0, -7, -5, 2, -3]"
2024/05/28 23:19:23.452532881,"[5, -6, -2, 0, 5, -11, 3, -1]"
2024/05/28 23:19:23.460008859,"[0, -1, -1, -9, 0, 0, 1, -2]"
2024/05/28 23:19:23.460028348,"[-5, 1, 2, -1, 6, 8, -3, 4]"
2024/05/28 23:19:23.475843040,"[0, -2, -5, 14, -2, 3, -5, 3]"
2024/05/28 23:19:23.475862903,"[-4, -1, 0, -3, 2, -3, 2, 1]"
2024/05/28 23:19:23.476547405,"[-6, -1, 9, -5, 2, -6, 1, -3]"
2024/05/28 23:19:23.476566838,"[-2, -2, 6, -4, 1, -5, 1, 0]"
2024/05/28 23:19:23.490344305,"[0, -1, -3, 3, 19, 2, 2, 0]"
2024/05/28 23:19:23.490363130,"[-2, 0, -4, 2, -4, 3, 0, -3]"
2024/05/28 23:19:23.497858150,"[2, -3, -4, 0, 0, 1, 3, 0]"
2024/05/28 23:19:23.497877891,"[-4, -2, 0, -9, -5, 8, 0, -4]"
2024/05/28 23:19:23.512947216,"[-4, -2, -3, -1, -7, -7, -4, -2]"
2024/05/28 23:19:23.512960042,"[0, 3, -3, -5, -5, -1, 2, 1]"
2024/05/28 23:19:23.520445818,"[-4, 2, 2, 2, -3, 1, -3, -4]"
2024/05/28 23:19:23.520458418,"[9, 11, 2, -2, -4, 4, 2, -1]"
2024/05/28 23:19:23.536169709,"[5, 2, -3, 2, -1, -1, 1, -4]"
2024/05/28 23:19:23.536184426,"[-2, -1, -8, 2, 1, -5, -3, -6]"
2024/05/28 23:19:23.536680434,"[-3, 1, -2, -6, 1, -3, -7, 3]"
2024/05/28 23:19:23.536692770,"[1, -2, -8, -1, 8, 3, -7, 5]"
2024/05/28 23:19:23.550377935,"[-3, -4, 4, 0, 5, 2, -5, 3]"
2024/05/28 23:19:23.550400521,"[1, -4, 7, 7, 0, 2, -2, 0]"
2024/05/28 23:19:23.557803300,"[-5, -11, 1, 8, 3, -1, 0, -2]"
2024/05/28 23:19:23.557826438,"[0, -6, 1, -4, 2, -3, -2, -6]"
2024/05/28 23:19:23.572834468,"[4, -1, 3, -10, -10, -7, -1, 3]"
2024/05/28 23:19:23.572867536,"[1, 5, -3, 2, -7, 0, 0, 0]"
2024/05/28 23:19:23.580389821,"[1, 11, 0, 4, -5, 0, 2, -2]"
2024/05/28 23:19:23.580414191,"[-4, 2, -1, 7, -2, -1, 3, -5]"
2024/05/28 23:19:23.595856256,"[2, -3, -3, 4, -1, 3, 3, -4]"
2024/05/28 23:19:23.595872202,"[-2, -7, -5, -2, 2, 1, 9, 3]"
2024/05/28 23:19:23.596602282,"[-1, 0, -6, -5, 8, -4, 1, 1]"
2024/05/28 23:19:23.596616176,"[2, -3, -1, -5, -3, -10, -4, 2]"
2024/05/28 23:19:23.610330295,"[-7, 1, 4, -4, 1, -5, -4, -1]"
2024/05/28 23:19:23.610345480,"[-4, -3, 9, -4, -5, 1, -6, -2]"
2024/05/28 23:19:23.617867182,"[0, 3, 1, -2, -3, 1, -8, 1]"
2024/05/28 23:19:23.617889703,"[2, 0, 1, 1, -2, -1, -3, 3]"
2024/05/28 23:19:23.632693993,"[-3, 3, -2, 5, -2, 2, 3, -2]"
2024/05/28 23:19:23.632708645,"[5, -2, -7, -4, -7, 4, 4, -2]"
2024/05/28 23:19:23.640281752,"[9, -13, -9, 6, -3, 2, 6, -3]"
2024/05/28 23:19:23.640295691,"[-1, -10, -2, 5, 2, 3, -2, 4]"
2024/05/28 23:19:23.655963082,"[-2, 1, 0, -4, 1, -1, 6, 3]"
2024/05/28 23:19:23.655979331,"[-10, 5, -8, -5, 5, -1, 3, -2]"
2024/05/28 23:19:23.656926692,"[-1, 2, -4, -1, -1, -2, 4, -5]"
2024/05/28 23:19:23.656939455,"[0, 4, 4, -4, -4, -3, -4, -5]"
2024/05/28 23:19:23.670376192,"[-1, 0, -7, -1, 2, -5, 0, 2]"
2024/05/28 23:19:23.670400352,"[-2, 1, 5, -6, 2, 2, -1, 3]"
2024/05/28 23:19:23.677930576,"[3, 0, 5, -1, 1, -2, 1, 3]"
2024/05/28 23:19:23.677955124,"[-1, -5, 1, 8, 2, -6, 0, -3]"
2024/05/28 23:19:23.692999704,"[4, -4, 1, 4, 5, 3, -2, -4]"
2024/05/28 23:19:23.693023123,"[3, -1, 2, 2, 4, -1, -3, 0]"
2024/05/28 23:19:23.700437317,"[1, 0, -4, -4, 0, -1, -3, -1]"
2024/05/28 23:19:23.700462473,"[2, 2, -3, -2, -3, -2, 4, 0]"
2024/05/28 23:19:23.715960462,"[-3, 2, -5, -1, -4, -1, -5, 2]"
2024/05/28 23:19:23.715983908,"[-2, -1, -1, 6, -1, 0, -1, -1]"
2024/05/28 23:19:23.716840994,"[2, -2, 8, 5, -3, 5, -1, -1]"
2024/05/28 23:19:23.716871466,"[-1, -1, 5, -1, -1, 6, -1, 1]"
2024/05/28 23:19:23.730226360,"[-4, 2, -2, -6, 0, 0, 0, -2]"
2024/05/28 23:19:23.730249706,"[-5, 2, 3, -2, 3, -3, -5, 0]"
2024/05/28 23:19:23.737867992,"[-3, 2, 1, -1, -4, -7, -2, -1]"
2024/05/28 23:19:23.737892147,"[-3, -6, 1, 4, 0, -8, -1, -1]"
2024/05/28 23:19:23.752900008,"[6, -2, -1, 4, -7, 0, -1, -2]"
2024/05/28 23:19:23.752923469,"[4, 0, -3, 0, 8, 4, 3, 0]"
2024/05/28 23:19:23.760403910,"[2, -1, -1, -2, -7, 4, 1, -2]"
2024/05/28 23:19:23.760428019,"[-4, -4, -9, 2, -5, 4, -1, -6]"
2024/05/28 23:19:23.776092598,"[-3, 2, -1, 4, 0, 0, 3, -1]"
2024/05/28 23:19:23.776116011,"[-5, -2, -10, -1, -2, -7, 1, 0]"
2024/05/28 23:19:23.776864744,"[-5, -5, 2, -2, 7, -7, -4, -2]"
2024/05/28 23:19:23.776888407,"[-1, -2, 3, -7, 5, 1, -1, 4]"
2024/05/28 23:19:23.790424512,"[-2, -6, -8, -8, -8, -4, 7, 2]"
2024/05/28 23:19:23.790448602,"[3, 3, 4, -3, 5, 16, 7, 3]"
2024/05/28 23:19:23.797942014,"[0, 6, -4, -3, -4, 0, 1, 5]"
2024/05/28 23:19:23.797969198,"[-1, 0, 2, 2, -7, -11, 0, 2]"
2024/05/28 23:19:23.812795496,"[-2, 5, 5, 0, 18, 2, -8, -3]"
2024/05/28 23:19:23.812821443,"[3, -4, 4, -7, -8, -1, -7, -1]"
2024/05/28 23:19:23.820258554,"[-3, -6, -4, -5, -4, 6, -4, -3]"
2024/05/28 23:19:23.820284541,"[1, 3, -7, 1, 3, -2, -2, -9]"
2024/05/28 23:19:23.835396775,"[4, -7, 0, 2, 3, -8, -4, -5]"
2024/05/28 23:19:23.835421500,"[-1, -11, -5, 9, 4, -4, -5, -6]"
2024/05/28 23:19:23.843644520,"[-7, -6, -2, 2, 7, -1, -4, -2]"
2024/05/28 23:19:23.843668897,"[-1, 2, 4, -7, 3, 0, 1, 5]"
2024/05/28 23:19:23.850496545,"[-2, 2, 0, -4, -10, 1, -2, 2]"
2024/05/28 23:19:23.850521755,"[-6, 6, 1, -2, 11, 8, 2, -1]"
2024/05/28 23:19:23.857930421,"[0, 13, 3, 6, -5, 3, 3, 1]"
2024/05/28 23:19:23.857955314,"[0, 3, -6, 15, 3, -2, 3, 4]"
2024/05/28 23:19:23.872785757,"[-1, -2, 2, 9, 5, 1, 4, 3]"
2024/05/28 23:19:23.872810511,"[3, 0, 8, 3, -10, -15, -7, 2]"
2024/05/28 23:19:23.880263503,"[0, -3, -3, -9, -9, -2, -2, 1]"
2024/05/28 23:19:23.880288243,"[3, 5, 9, -9, 2, 8, -1, 0]"
2024/05/28 23:19:23.895301971,"[1, -3, -1, -9, -7, 5, 2, 1]"
2024/05/28 23:19:23.895326609,"[1, -5, -15, 0, -11, -11, 1, 0]"
2024/05/28 23:19:23.903543122,"[2, -1, -3, -11, 10, 5, 2, 1]"
2024/05/28 23:19:23.903567671,"[-3, 3, 4, -1, 1, -3, -7, 0]"
2024/05/28 23:19:23.910340183,"[-5, -3, 5, 1, 2, 4, -1, 1]"
2024/05/28 23:19:23.910365192,"[-2, -4, -3, 1, 0, -5, 4, 5]"
2024/05/28 23:19:23.917817409,"[0, 0, 2, 2, -5, -4, 8, 0]"
2024/05/28 23:19:23.917841780,"[0, -7, -6, -8, -4, 7, 2, -4]"
2024/05/28 23:19:23.934271971,"[6, 0, -6, -4, 5, 3, -4, -3]"
2024/05/28 23:19:23.934285818,"[5, -1, -3, -5, 1, 7, -6, -6]"
2024/05/28 23:19:23.941003930,"[3, -4, -8, -1, -1, -11, -3, -4]"
2024/05/28 23:19:23.941017392,"[1, -7, 2, 6, 4, -2, 4, -5]"
2024/05/28 23:19:23.955357256,"[-6, 1, -1, -6, -6, -4, 2, -2]"
2024/05/28 23:19:23.955371707,"[-6, 7, 11, 2, -1, 2, 3, 2]"
2024/05/28 23:19:23.963513007,"[-9, 5, 5, 9, 0, 6, -4, 1]"
2024/05/28 23:19:23.963526655,"[-4, 7, -6, 2, -2, 1, -2, -1]"
2024/05/28 23:19:23.970365767,"[-1, -5, -9, -1, 2, 5, -1, -2]"
2024/05/28 23:19:23.970379269,"[6, -9, -1, -7, 4, 7, 0, -4]"
2024/05/28 23:19:23.977819494,"[2, 7, 8, -4, 6, -9, -2, -4]"
2024/05/28 23:19:23.977833003,"[1, 5, 3, -2, -6, -15, -10, 2]"
2024/05/28 23:19:23.992847795,"[-1, 0, 0, 0, -3, -6, -2, 6]"
2024/05/28 23:19:23.992869780,"[1, -1, -3, -17, -7, 1, -6, -1]"
2024/05/28 23:19:24.926885,"[2, -7, -8, 12, -1, 9, -1, -4]"
2024/05/28 23:19:24.940434,"[-2, -10, -7, 8, -2, 6, 0, -1]"
2024/05/28 23:19:24.15202571,"[1, 4, 0, -1, 1, -13, -1, 2]"
2024/05/28 23:19:24.15217471,"[-3, -3, 8, 19, -5, -11, 3, 1]"
2024/05/28 23:19:24.23526769,"[-1, 6, -3, -7, -11, -8, 0, 0]"
2024/05/28 23:19:24.23541726,"[-1, 7, 2, 4, 8, 7, 7, -5]"
2024/05/28 23:19:24.38509820,"[1, 5, 7, 5, -1, 12, 8, 1]"
2024/05/28 23:19:24.38530001,"[-5, -9, -12, -4, 2, 9, 3, -2]"
2024/05/28 23:19:24.39372475,"[-1, -6, 3, -1, -5, 3, -1, -3]"
2024/05/28 23:19:24.39386176,"[-2, -3, -6, 0, -2, 0, -5, -4]"
2024/05/28 23:19:24.52937442,"[1, -3, 6, -4, 2, 1, 4, 1]"
2024/05/28 23:19:24.52953208,"[1, 8, 5, -2, 8, -6, 0, 4]"
2024/05/28 23:19:24.61053188,"[-5, -5, -3, 28, 6, -3, 4, 7]"
2024/05/28 23:19:24.61068676,"[-2, -6, -7, -35, -13, -3, -2, -2]"
2024/05/28 23:19:24.75280202,"[4, 3, 8, 9, 0, 9, -6, -3]"
2024/05/28 23:19:24.75297960,"[3, 1, -6, 15, -14, -5, -4, -3]"
2024/05/28 23:19:24.83632896,"[-11, -11, -7, 29, -3, 4, -9, -1]"
2024/05/28 23:19:24.83651097,"[-1, 10, 9, -14, 7, 2, -5, 4]"
2024/05/28 23:19:24.98345263,"[2, 3, -3, -14, 4, -7, -4, -5]"
2024/05/28 23:19:24.98364349,"[-7, -9, 3, 29, 3, -1, 0, 3]"
2024/05/28 23:19:24.99138108,"[5, 0, 9, -11, 5, -12, -5, -1]"
2024/05/28 23:19:24.99157376,"[-6, -14, 0, 20, -1, -5, 3, 5]"
2024/05/28 23:19:24.112770026,"[1, 3, 5, 23, -7, 3, 1, -2]"
2024/05/28 23:19:24.112791209,"[1, 5, -17, -15, -2, 2, 0, -3]"
2024/05/28 23:19:24.121081727,"[1, 7, 1, 16, 14, -8, -9, -8]"
2024/05/28 23:19:24.121095635,"[-2, -7, -7, -27, -7, 1, -8, -10]"
2024/05/28 23:19:24.135235252,"[-6, -11, 9, 80, 22, 2, 8, -1]"
2024/05/28 23:19:24.135257994,"[6, 2, -16, -99, -31, -5, 31, 12]"
2024/05/28 23:19:24.143505887,"[-2, -2, 0, 0, 9, 2, 7, 4]"
2024/05/28 23:19:24.143528489,"[-7, -10, 0, -31, -1, -1, -7, -3]"
2024/05/28 23:19:24.158446218,"[-1, 4, -9, -24, 15, -6, -2, -2]"
2024/05/28 23:19:24.158472271,"[-11, -28, 13, 87, 10, 1, -3, -9]"
2024/05/28 23:19:24.159343837,"[8, 20, -13, 39, -6, 11, 20, 7]"
2024/05/28 23:19:24.159367722,"[6, 5, -10, -73, -10, 4, 5, 14]"
2024/05/28 23:19:24.172803114,"[17, 56, 31, -79, -5, 4, -15, 4]"
2024/05/28 23:19:24.172825641,"[-9, 0, -7, 10, 8, 1, 4, 0]"
2024/05/28 23:19:24.181063890,"[13, -16, 26, -18, -15, -7, 7, 10]"
2024/05/28 23:19:24.181087726,"[2, -15, -22, 61, 25, 12, 62, 27]"
2024/05/28 23:19:24.195302053,"[6, 12, -31, -36, -13, 7, 5, 2]"
2024/05/28 23:19:24.195327056,"[0, 14, 8, 70, 6, 5, -16, -3]"
2024/05/28 23:19:24.203609009,"[-2, -16, -1, 51, -18, -12, -24, -1]"
2024/05/28 23:19:24.203632299,"[5, 25, 22, 70, 41, 9, 10, -14]"
2024/05/28 23:19:24.218607770,"[-16, -46, 8, -58, -16, -14, 57, 1]"
2024/05/28 23:19:24.218631981,"[26, 91, 51, -32, 10, 5, 26, 0]"
2024/05/28 23:19:24.219400865,"[-7, -34, -48, -84, 3, 45, -5, -2]"
2024/05/28 23:19:24.219424017,"[2, -6, 2, 51, -17, -49, -74, -1]"
2024/05/28 23:19:24.232786770,"[-6, 9, 9, 13, 7, -12, -110, -12]"
2024/05/28 23:19:24.232801582,"[-4, -35, 11, 62, -1, -24, -41, -7]"
2024/05/28 23:19:24.241589061,"[-13, -11, 25, -19, -9, 2, 15, -12]"
2024/05/28 23:19:24.241603268,"[-18, 14, -58, -105, -30, 10, -71, -9]"
2024/05/28 23:19:24.264298611,"[-16, -38, 33, 127, 33, 3, -9, 17]"
2024/05/28 23:19:24.264321716,"[-11, -29, -65, -125, -52, -19, -116, 14]"
2024/05/28 23:19:24.264994012,"[12, 78, 47, 75, 29, 0, -47, 8]"
2024/05/28 23:19:24.265007373,"[-19, -39, -32, -14, -21, 2, 62, -2]"
2024/05/28 23:19:24.278445188,"[0, -24, -3, -64, 7, 2, 59, -10]"
2024/05/28 23:19:24.278466276,"[-6, 59, 24, -75, -1, 6, 84, 18]"
2024/05/28 23:19:24.279257373,"[-51, -10, -28, -98, -45, -19, 105, -11]"
2024/05/28 23:19:24.279274037,"[-5, -41, 9, -2, 24, -1, 127, 26]"
2024/05/28 23:19:24.292782290,"[-14, 19, -10, -1, -10, -16, 13, 1]"
2024/05/28 23:19:24.292796916,"[-14, -70, -34, 55, 6, 21, -86, 13]"
2024/05/28 23:19:24.300950890,"[9, -34, 41, 40, 72, 9, -69, -1]"
2024/05/28 23:19:24.300964375,"[19, 41, 22, 42, -36, -5, -19, 19]"
2024/05/28 23:19:24.315254433,"[-11, -88, -27, -19, -6, 10, 8, 15]"
2024/05/28 23:19:24.315269188,"[-5, 25, -19, 58, 1, 4, 30, -15]"
2024/05/28 23:19:24.323467415,"[19, -14, 22, 55, 28, -23, -69, -4]"
2024/05/28 23:19:24.323481087,"[-26, -15, -21, 4, -33, 13, 39, -50]"
2024/05/28 23:19:24.338475251,"[32, -5, 4, 127, 35, 9, -42, -24]"
2024/05/28 23:19:24.338490933,"[28, 59, 14, 2, 0, -8, 19, -15]"
2024/05/28 23:19:24.339301774,"[-30, -68, -42, -87, -57, -2, 41, 5]"
2024/05/28 23:19:24.339315102,"[18, -79, 21, 110, 22, -5, -66, 13]"
2024/05/28 23:19:24.352786466,"[-5, 101, 25, -81, -13, 1, -28, -5]"
2024/05/28 23:19:24.352800425,"[14, -25, -28, -48, 2, -1, -7, 1]"
2024/05/28 23:19:24.361050202,"[15, 57, -55, -7, 2, 5, 78, 5]"
2024/05/28 23:19:24.361063404,"[11, 3, 25, 72, 40, 2, -60, -17]"
2024/05/28 23:19:24.375310005,"[5, 20, -14, 12, -13, -6, 1, -2]"
2024/05/28 23:19:24.375323997,"[19, 43, -10, 27, 19, -50, 24, -3]"
2024/05/28 23:19:24.383475572,"[4, -38, -28, -109, -54, -37, 14, 14]"
2024/05/28 23:19:24.383489253,"[-4, 23, 26, 25, 55, 20, -8, 15]"
2024/05/28 23:19:24.398477971,"[-7, -11, -23, -49, -28, 18, 3, 2]"
2024/05/28 23:19:24.398492344,"[3, -28, 21, 20, 16, 36, -10, -7]"
2024/05/28 23:19:24.399326371,"[5, 3, -10, 22, 9, 30, -35, -16]"
2024/05/28 23:19:24.399339444,"[-9, 27, 1, -59, -28, 7, -30, -22]"
2024/05/28 23:19:24.412846090,"[6, 0, 1, 17, -3, 5, 26, -12]"
2024/05/28 23:19:24.412865140,"[-5, -18, 10, -2, -9, 2, 11, -4]"
2024/05/28 23:19:24.420972417,"[-3, 27, 6, 23, 4, 2, -6, -2]"
2024/05/28 23:19:24.420985737,"[0, -1, 4, -40, -5, 2, 9, -4]"
2024/05/28 23:19:24.435299319,"[4, -2, -3, -3, -2, -11, 6, 1]"
2024/05/28 23:19:24.435314293,"[-12, -14, 7, -22, 4, 8, -2, -19]"
2024/05/28 23:19:24.443476771,"[2, 5, 9, 29, 12, 3, -7, -14]"
2024/05/28 23:19:24.443490115,"[8, 25, 2, -11, -12, -3, 0, -11]"
2024/05/28 23:19:24.458494003,"[-2, -12, -15, 2, -9, -3, -12, 0]"
2024/05/28 23:19:24.458508869,"[-6, 5, 5, 5, 0, 3, -6, -31]"
2024/05/28 23:19:24.459243021,"[8, 16, 8, 9, 3, -1, 20, -31]"
2024/05/28 23:19:24.459256128,"[8, -6, -4, -27, -4, -10, 18, -35]"
2024/05/28 23:19:24.472828925,"[9, -3, -3, -29, -3, -6, -84, -19]"
2024/05/28 23:19:24.472842808,"[-5, -15, 4, -17, -2, 1, -107, -1]"
2024/05/28 23:19:24.480940574,"[2, 20, 5, 1, -7, -5, -113, -50]"
2024/05/28 23:19:24.480953967,"[-10, 29, -2, -14, -14, -9, -122, -51]"
2024/05/28 23:19:24.495204366,"[-11, 10, 0, 3, -3, -5, -48, 2]"
2024/05/28 23:19:24.495218026,"[-4, -3, 7, 14, 6, -2, 26, 35]"
2024/05/28 23:19:24.503424385,"[0, 1, 5, 49, 11, -2, 74, 77]"
2024/05/28 23:19:24.503438134,"[-3, -13, 2, 23, 3, -2, 93, 29]"
2024/05/28 23:19:24.518624563,"[-5, -8, -3, 4, 4, 3, 87, 13]"
2024/05/28 23:19:24.518648744,"[2, 2, -4, -3, -2, -1, 105, -7]"
2024/05/28 23:19:24.519225169,"[-5, -18, -5, 3, 2, -7, 120, 20]"
2024/05/28 23:19:24.519239341,"[6, -8, -1, 44, -1, -3, 127, 30]"
2024/05/28 23:19:24.532677891,"[3, -14, 7, 106, 4, 3, 124, 12]"
2024/05/28 23:19:24.532693326,"[-9, -19, 0, -40, 3, 8, 127, 16]"
2024/05/28 23:19:24.540849099,"[2, 0, 4, -50, 8, 0, 106, 20]"
2024/05/28 23:19:24.540872599,"[3, 10, -1, -2, -2, -5, 38, 15]"
2024/05/28 23:19:24.555223184,"[-5, -8, -8, -86, -1, -7, 56, 3]"
2024/05/28 23:19:24.555238715,"[0, -7, -3, 7, 0, 2, 6, 1]"
2024/05/28 23:19:24.571013448,"[1, 8, 6, -4, -1, 3, -34, -5]"
2024/05/28 23:19:24.571028062,"[1, -6, 4, -52, -1, 5, -61, 16]"
2024/05/28 23:19:24.578442045,"[2, 3, -2, -24, -4, -2, -21, 2]"
2024/05/28 23:19:24.578457093,"[3, -9, -1, -4, -2, -1, -24, -11]"
2024/05/28 23:19:24.579235143,"[1, -3, -8, -68, -4, 0, -58, -11]"
2024/05/28 23:19:24.579248806,"[4, 4, -7, 23, 8, 2, -43, 4]"
2024/05/28 23:19:24.592709819,"[-3, -3, 3, 71, 5, 3, -96, 7]"
2024/05/28 23:19:24.592725455,"[-1, 4, 11, 54, -5, 1, -91, 7]"
2024/05/28 23:19:24.600954096,"[1, -1, 9, 86, 0, -1, -97, 2]"
2024/05/28 23:19:24.600968252,"[3, 8, 5, -6, 5, 1, -33, 12]"
2024/05/28 23:19:24.615804314,"[1, 4, 5, -9, -4, -4, -55, 1]"
2024/05/28 23:19:24.615823521,"[-7, -8, -7, -22, 3, -2, -38, -2]"
2024/05/28 23:19:24.623473594,"[-6, -10, -7, -15, 1, -1, -54, -15]"
2024/05/28 23:19:24.623491903,"[0, 5, 0, 22, -2, -6, -24, 5]"
2024/05/28 23:19:24.638384535,"[0, 7, -5, 35, -1, -2, -14, 13]"
2024/05/28 23:19:24.638404247,"[3, 6, 1, 51, -4, -4, -18, 15]"
2024/05/28 23:19:24.639232259,"[5, 5, 0, 42, 1, 0, -17, 8]"
2024/05/28 23:19:24.639246487,"[-2, -1, -5, -14, 3, -6, 2, -2]"
2024/05/28 23:19:24.652651438,"[-4, 0, -6, 8, 0, 0, 9, -3]"
2024/05/28 23:19:24.652666140,"[-2, 0, 0, -29, 0, 1, -1, -4]"
2024/05/28 23:19:24.661733194,"[3, 5, 1, -18, -6, 4, -16, -12]"
2024/05/28 23:19:24.661754293,"[2, -6, 6, -14, -2, 1, -20, -7]"
2024/05/28 23:19:24.675383953,"[1, -5, -3, -19, -1, 2, 10, -6]"
2024/05/28 23:19:24.675399320,"[-7, 2, 4, 0, -3, 3, 0, -4]"
2024/05/28 23:19:24.684365476,"[1, 3, -2, -4, 1, -2, -5, 1]"
2024/05/28 23:19:24.684380264,"[0, 6, -3, -5, -2, 3, -4, -3]"
2024/05/28 23:19:24.697818360,"[3, 0, -3, -8, -2, 3, -2, -5]"
2024/05/28 23:19:24.697833765,"[-2, 0, 3, -14, -1, 8, -3, 1]"
2024/05/28 23:19:24.706810366,"[-1, 5, 8, 6, -1, 0, 12, -2]"
2024/05/28 23:19:24.706824692,"[2, 1, 4, -15, 4, 1, 4, -5]"
2024/05/28 23:19:24.712909673,"[4, -3, -1, -10, 4, -2, 6, -3]"
2024/05/28 23:19:24.712924157,"[0, -18, -12, -9, 0, -2, -7, 0]"
2024/05/28 23:19:24.721847180,"[-1, 8, 2, 2, -2, 2, -10, -1]"
2024/05/28 23:19:24.721866664,"[-4, 4, -1, 0, -3, -1, 2, 4]"
2024/05/28 23:19:24.735327158,"[-5, -2, -1, -4, 0, -5, -2, 0]"
2024/05/28 23:19:24.735345209,"[3, 1, 1, 16, -4, -4, 3, 6]"
2024/05/28 23:19:24.744412618,"[5, -2, -6, 5, -3, -2, -5, 11]"
2024/05/28 23:19:24.744436700,"[-1, 1, -4, -7, -2, -2, -4, 1]"
2024/05/28 23:19:24.757835602,"[6, 4, 5, -2, -1, 1, -3, -4]"
2024/05/28 23:19:24.757859037,"[3, 2, 1, -2, 2, -2, -9, -4]"
2024/05/28 23:19:24.766802895,"[-6, -2, -1, -8, 0, 2, -2, -5]"
2024/05/28 23:19:24.766816593,"[-3, -2, 2, 5, 1, -3, 1, -6]"
2024/05/28 23:19:24.772794991,"[-5, -3, 0, 1, -2, 1, 0, -8]"
2024/05/28 23:19:24.772808577,"[-4, 3, 2, 0, -2, -5, 3, -3]"
2024/05/28 23:19:24.781898797,"[-2, 1, -2, 3, -2, -2, 2, 0]"
2024/05/28 23:19:24.781912546,"[-3, 4, -7, 13, -6, -3, -2, 2]"
2024/05/28 23:19:24.795408591,"[-5, -7, -4, 85, 0, -3, 19, -2]"
2024/05/28 23:19:24.795422367,"[2, -2, -2, 11, -5, 1, 7, -1]"
2024/05/28 23:19:24.804410716,"[-1, 0, -2, 13, 2, 0, 4, 0]"
2024/05/28 23:19:24.804424544,"[5, -5, -1, -4, 2, -1, -1, -2]"
2024/05/28 23:19:24.817868339,"[5, -8, -6, -39, -4, 0, -6, 0]"
2024/05/28 23:19:24.817882235,"[3, -1, -3, -21, 2, 1, 5, -2]"
2024/05/28 23:19:24.826882498,"[-2, -1, -3, -15, 3, -1, 13, 1]"
2024/05/28 23:19:24.826896274,"[-1, 4, -3, -19, 1, 1, -2, -3]"
2024/05/28 23:19:24.832840188,"[1, 7, 3, -18, 0, 0, -9, 0]"
2024/05/28 23:19:24.832860823,"[-4, -1, 5, -1, -2, -3, -11, -3]"
2024/05/28 23:19:24.841895113,"[-3, 0, 6, -17, -1, 0, -8, 3]"
2024/05/28 23:19:24.841909004,"[-3, -5, 4, 1, -2, -5, -3, 3]"
2024/05/28 23:19:24.855280822,"[-2, -2, 0, -5, -6, -1, -13, 1]"
2024/05/28 23:19:24.855295364,"[0, -7, 2, 0, 1, 0, -5, -3]"
2024/05/28 23:19:24.864291885,"[3, -6, -2, -2, 0, 2, -1, -3]"
2024/05/28 23:19:24.864305366,"[1, -4, -6, -3, 5, 7, -2, -4]"
2024/05/28 23:19:24.877857000,"[-8, -2, -3, -36, 5, -4, 1, -2]"
2024/05/28 23:19:24.877870912,"[2, 9, 1, 6, -4, -2, 2, 3]"
2024/05/28 23:19:24.886832609,"[-3, -1, 0, 9, -2, -1, 0, -3]"
2024/05/28 23:19:24.886846507,"[-1, -5, 0, 11, -5, 0, 0, 0]"
2024/05/28 23:19:24.892787153,"[0, 0, -6, 2, 1, -1, 2, -3]"
2024/05/28 23:19:24.892800846,"[-2, -1, -7, 7, 4, -1, 5, 1]"
2024/05/28 23:19:24.901957222,"[1, -3, 2, 14, 0, 1, -4, -1]"
2024/05/28 23:19:24.901970951,"[-1, -1, 3, 4, -2, 3, -15, -3]"
2024/05/28 23:19:24.915319623,"[-3, 2, 3, -12, -5, -3, -3, -2]"
2024/05/28 23:19:24.915338402,"[2, 2, 2, 3, -4, -4, 5, -4]"
2024/05/28 23:19:24.924460850,"[-6, -5, -9, 9, -3, -6, 6, 1]"
2024/05/28 23:19:24.924473884,"[-2, 6, 0, 5, 1, -4, 11, -1]"
2024/05/28 23:19:24.938000501,"[-2, 4, 2, 7, 4, 3, 6, -2]"
2024/05/28 23:19:24.938014414,"[2, -1, 4, 0, 4, 1, 6, -1]"
2024/05/28 23:19:24.946878165,"[5, -6, 6, -4, 0, -5, 1, 1]"
2024/05/28 23:19:24.946891971,"[-2, -2, -3, -1, 2, -3, 8, 0]"
2024/05/28 23:19:24.961664544,"[-2, 7, -6, -3, 1, 3, 2, 1]"
2024/05/28 23:19:24.961678701,"[-3, 2, 0, -4, 1, 6, -1, 1]"
2024/05/28 23:19:24.963301154,"[-1, 3, 1, -6, 1, 2, -2, -2]"
2024/05/28 23:19:24.963315179,"[5, -2, 9, -6, -6, -2, 4, 0]"
2024/05/28 23:19:24.984208517,"[0, -5, 2, -2, -3, -4, 9, -2]"
2024/05/28 23:19:24.984222404,"[-3, -7, -7, -7, 5, -3, 3, 0]"
2024/05/28 23:19:24.985814628,"[1, -4, -7, -7, 2, -3, -1, -1]"
2024/05/28 23:19:24.985828373,"[4, 2, -2, -9, -3, -4, 1, 5]"
2024/05/28 23:19:24.997789577,"[-1, 3, -1, -8, -1, -1, -1, 6]"
2024/05/28 23:19:24.997803317,"[-3, -1, -1, -5, -2, 0, 0, 4]"
2024/05/28 23:19:25.6824826,"[-1, 3, -1, 4, -3, 4, 1, 1]"
2024/05/28 23:19:25.6838534,"[-3, -5, -2, 2, 0, 5, 3, -2]"
2024/05/28 23:19:25.21691283,"[-3, -3, 0, 2, -1, -1, -7, 0]"
2024/05/28 23:19:25.21709284,"[1, 5, -2, 3, -1, -3, -9, -1]"
2024/05/28 23:19:25.23288550,"[3, 5, 0, 2, -2, -1, -9, -2]"
2024/05/28 23:19:25.23302405,"[0, 0, 0, -3, -3, -2, -2, -2]"
2024/05/28 23:19:25.35422242,"[-4, -5, 0, 5, 1, -9, 2, -3]"
2024/05/28 23:19:25.35438629,"[-5, -5, 0, 1, 2, -2, 1, -2]"
2024/05/28 23:19:25.44347179,"[2, 1, -2, -10, 1, 0, 1, 1]"
2024/05/28 23:19:25.44361507,"[2, 3, -3, -35, -1, 1, 2, -2]"
2024/05/28 23:19:25.57857241,"[5, 4, 3, -8, -1, -1, 0, -1]"
2024/05/28 23:19:25.57871452,"[0, 3, 1, -11, 0, 0, -1, -5]"
2024/05/28 23:19:25.66767303,"[1, 1, 3, 14, 3, -3, -1, 0]"
2024/05/28 23:19:25.66781158,"[-3, -4, -6, 21, 1, -3, -1, 4]"
2024/05/28 23:19:25.82098353,"[-4, -9, -6, 8, 1, 1, 1, 1]"
2024/05/28 23:19:25.82112371,"[-1, 0, 3, 18, -4, 4, 3, -1]"
2024/05/28 23:19:25.83631004,"[-1, 2, 1, -5, -5, 4, -3, -4]"
2024/05/28 23:19:25.83644672,"[-2, -4, -2, 1, 3, 2, -6, -2]"
2024/05/28 23:19:25.95229551,"[3, 3, -5, 4, -1, -1, -4, 2]"
2024/05/28 23:19:25.95253893,"[0, -3, 1, 0, 3, -4, 0, 2]"
2024/05/28 23:19:25.104273062,"[-2, -9, 6, 1, -1, -2, 1, 1]"
2024/05/28 23:19:25.104287288,"[-1, -4, 7, 4, -2, -5, -4, 3]"
2024/05/28 23:19:25.117703019,"[3, 0, 1, -1, -2, 1, -2, 0]"
2024/05/28 23:19:25.117717220,"[-1, 3, -4, -1, -7, 6, -3, -2]"
2024/05/28 23:19:25.126694073,"[3, 3, -4, -1, -2, 1, 3, -4]"
2024/05/28 23:19:25.126707791,"[0, 3, -6, 3, 2, 0, 6, -5]"
2024/05/28 23:19:25.141468996,"[-3, -3, -3, 0, 3, -3, 1, -3]"
2024/05/28 23:19:25.141493137,"[-2, -2, -1, -3, 4, -8, 5, 0]"
2024/05/28 23:19:25.143106501,"[-1, 5, 2, -3, 4, 2, -1, -2]"
2024/05/28 23:19:25.143120580,"[-3, 1, -3, -4, -1, 8, -2, -8]"
2024/05/28 23:19:25.155376345,"[3, 5, -4, -6, 1, 5, -4, -1]"
2024/05/28 23:19:25.155391878,"[2, -3, 1, -3, 0, 1, -1, -4]"
2024/05/28 23:19:25.164362674,"[-2, -5, 2, 5, -3, -2, -1, -1]"
2024/05/28 23:19:25.164376484,"[-4, -3, 8, -4, -8, -5, -1, 1]"
2024/05/28 23:19:25.178466779,"[-1, -1, 2, -5, -2, -1, -3, 0]"
2024/05/28 23:19:25.178489489,"[0, -3, -4, -16, 0, -4, 0, 6]"
2024/05/28 23:19:25.185350106,"[1, 1, -7, -7, 1, 0, 3, 7]"
2024/05/28 23:19:25.185365937,"[3, -1, -4, 0, 1, 4, 4, 4]"
2024/05/28 23:19:25.209197344,"[0, -7, -6, 7, 1, 7, -7, 2]"
2024/05/28 23:19:25.209211505,"[-1, 0, 0, 7, 5, 0, 1, 0]"
2024/05/28 23:19:25.210820788,"[1, -2, 3, 8, 5, -6, -1, 0]"
2024/05/28 23:19:25.210835041,"[-2, 8, 4, 4, -5, -5, 2, 2]"
2024/05/28 23:19:25.215269448,"[-5, 2, 2, 5, -5, -3, 8, -3]"
2024/05/28 23:19:25.215284265,"[-2, 0, 0, -3, -4, -1, -4, -1]"
2024/05/28 23:19:25.224319497,"[-5, 0, -4, -1, 3, 1, 0, -1]"
2024/05/28 23:19:25.224333204,"[-3, -2, 0, 11, 7, 3, -4, -3]"
2024/05/28 23:19:25.238477016,"[-2, -5, -3, 11, -1, 0, -6, 2]"
2024/05/28 23:19:25.238491212,"[-2, -2, -1, 1, -1, 1, -4, -1]"
2024/05/28 23:19:25.245284814,"[0, -7, -2, -2, -4, -1, -2, 0]"
2024/05/28 23:19:25.245299610,"[-1, -1, -3, -3, 4, -2, -4, -1]"
2024/05/28 23:19:25.261800596,"[3, 4, -3, -3, -2, -3, 1, 0]"
2024/05/28 23:19:25.261828269,"[3, 2, -1, -1, -4, -3, 2, 0]"
2024/05/28 23:19:25.263346117,"[-3, -1, 0, -12, -2, 0, 0, -3]"
2024/05/28 23:19:25.263371322,"[5, 3, 3, -6, -3, 0, 2, -2]"
2024/05/28 23:19:25.275291416,"[1, -6, 8, -4, -2, 1, 6, -3]"
2024/05/28 23:19:25.275315866,"[-2, -8, -1, 1, -2, -3, 2, -2]"
2024/05/28 23:19:25.291783304,"[0, -3, 0, 3, -3, 2, 4, 0]"
2024/05/28 23:19:25.291797635,"[1, 3, -9, 2, 1, 4, 5, 2]"
2024/05/28 23:19:25.298431160,"[1, 2, -1, -2, 0, -1, 3, -1]"
2024/05/28 23:19:25.298444958,"[4, 0, 0, -2, 3, 1, -6, -1]"
2024/05/28 23:19:25.305315627,"[1, -1, 1, -6, -1, -3, -3, 0]"
2024/05/28 23:19:25.305329551,"[-4, -5, -4, -1, -2, -2, -3, -3]"
2024/05/28 23:19:25.321592493,"[-1, 0, -4, -3, -1, 2, -4, 0]"
2024/05/28 23:19:25.321606742,"[-4, 2, -6, 2, -3, 3, 2, 4]"
2024/05/28 23:19:25.323280491,"[-6, -7, -1, -3, -1, 0, 0, 0]"
2024/05/28 23:19:25.323294270,"[2, -4, 4, 6, -1, -2, -3, -2]"
2024/05/28 23:19:25.335355260,"[-2, 0, 3, 6, 2, 1, 1, 0]"
2024/05/28 23:19:25.335369578,"[-2, 0, -1, 4, 1, 0, 2, 2]"
2024/05/28 23:19:25.344371952,"[3, 4, -2, 1, -1, -4, 4, 3]"
2024/05/28 23:19:25.344385832,"[4, 5, -5, -4, -1, -3, -3, 2]"
2024/05/28 23:19:25.358544165,"[2, 0, -5, -4, -1, -3, -5, -1]"
2024/05/28 23:19:25.358557982,"[1, 4, 4, -3, 1, -3, -4, -5]"
2024/05/28 23:19:25.365320495,"[-3, -3, 3, 5, -1, 3, -1, -3]"
2024/05/28 23:19:25.365335017,"[-7, -10, 4, -2, 0, 0, -3, -8]"
2024/05/28 23:19:25.381688532,"[-3, -6, -3, -4, 2, 0, 0, -9]"
2024/05/28 23:19:25.381702694,"[-3, 0, -8, 0, 0, 3, -4, -13]"
2024/05/28 23:19:25.383310191,"[-1, 1, -2, 1, -3, 2, -1, -9]"
2024/05/28 23:19:25.383323874,"[1, 1, 3, 7, -6, -1, 4, -9]"
2024/05/28 23:19:25.395343750,"[0, 1, 1, 3, -3, 1, 0, -6]"
2024/05/28 23:19:25.395357469,"[1, 3, 4, -1, 0, -2, -2, -6]"
2024/05/28 23:19:25.404376943,"[-1, 0, 1, 1, 3, -4, -4, -8]"
2024/05/28 23:19:25.404390943,"[-2, -2, -2, -1, 1, 1, -2, -10]"
2024/05/28 23:19:25.418499217,"[3, -1, 3, 0, 3, -3, 0, -13]"
2024/05/28 23:19:25.418513665,"[6, -3, -3, -2, 0, 0, -1, -10]"
2024/05/28 23:19:25.425164051,"[-3, -5, -6, -4, -1, -2, -3, -7]"
2024/05/28 23:19:25.425177744,"[-4, -4, -1, -3, 3, -3, 0, 2]"
2024/05/28 23:19:25.441642121,"[-2, -1, -2, 0, -1, 2, -2, 9]"
2024/05/28 23:19:25.441656327,"[-2, 0, 0, 2, 2, 3, -2, 11]"
2024/05/28 23:19:25.443251238,"[1, 2, -1, 4, 1, 1, 1, 10]"
2024/05/28 23:19:25.443265334,"[1, 2, -5, -2, 0, -2, 5, 2]"
2024/05/28 23:19:25.455313903,"[0, 1, -8, -4, -1, 1, 0, -10]"
2024/05/28 23:19:25.455329260,"[1, -3, -1, -2, -8, -3, 0, -7]"
2024/05/28 23:19:25.464296029,"[1, -1, 2, 1, -7, -2, -3, -2]"
2024/05/28 23:19:25.464310297,"[-1, 5, 9, 8, -4, -1, 8, 13]"
2024/05/28 23:19:25.478617198,"[-2, 1, 3, 4, -1, -1, 3, 37]"
2024/05/28 23:19:25.478634521,"[-5, 2, -1, 0, -1, 4, 1, 52]"
2024/05/28 23:19:25.485198758,"[-1, 2, -4, -6, 4, 3, -5, 52]"
2024/05/28 23:19:25.485213057,"[-2, -5, -1, -5, 4, -2, -9, 40]"
2024/05/28 23:19:25.501695339,"[2, 2, 2, -1, 1, -3, -4, 23]"
2024/05/28 23:19:25.501711058,"[2, -6, -2, -4, -2, -1, -1, 8]"
2024/05/28 23:19:25.503297352,"[0, -3, -3, -4, 1, 1, -2, 0]"
2024/05/28 23:19:25.503311297,"[4, 2, -1, -7, -2, 3, 2, -7]"
2024/05/28 23:19:25.515274511,"[0, -4, 4, -2, -3, -3, -2, -11]"
2024/05/28 23:19:25.515288565,"[-2, -1, 1, -5, -2, -3, -2, -11]"
2024/05/28 23:19:25.524258737,"[-1, 4, 0, 1, -1, 3, 2, -14]"
2024/05/28 23:19:25.524270845,"[-5, -3, -3, 2, -2, 3, 2, -8]"
2024/05/28 23:19:25.538120747,"[-1, -2, -3, -2, -1, 1, 2, -7]"
2024/05/28 23:19:25.538133916,"[1, 0, 2, 8, 1, -5, 0, -12]"
2024/05/28 23:19:25.544926156,"[1, 4, -2, 0, -1, -5, -3, -16]"
2024/05/28 23:19:25.544938879,"[2, 1, -4, 0, 2, -1, -6, -10]"
2024/05/28 23:19:25.561343219,"[0, 0, -2, -4, 1, 2, 6, -10]"
2024/05/28 23:19:25.561357058,"[-2, -2, 2, 4, 0, 3, -1, -9]"
2024/05/28 23:19:25.563002044,"[-4, -2, 2, 3, -1, -1, 0, -4]"
2024/05/28 23:19:25.563016714,"[-2, 1, 2, -2, -5, -3, 12, -3]"
2024/05/28 23:19:25.574927413,"[-4, -2, -3, -2, 1, 1, 5, -3]"
2024/05/28 23:19:25.574941928,"[0, 1, -2, -2, 5, 0, -1, -7]"
2024/05/28 23:19:25.583986097,"[0, -3, 1, -1, 1, -3, -5, -6]"
2024/05/28 23:19:25.583998980,"[0, -3, 1, 5, 0, -3, -11, -4]"
2024/05/28 23:19:25.598274011,"[0, 0, 3, 5, -2, 0, -4, -4]"
2024/05/28 23:19:25.598290669,"[-1, -2, -5, 4, -2, 2, 0, -3]"
2024/05/28 23:19:25.604994762,"[3, 0, -3, 0, -1, 0, 0, -5]"
2024/05/28 23:19:25.605007221,"[0, 2, 0, -4, -2, -1, 1, -4]"
2024/05/28 23:19:25.621417588,"[-3, -1, 1, -1, -2, -4, -1, -3]"
2024/05/28 23:19:25.621431235,"[-7, -8, 1, -2, -2, -3, -2, 0]"
2024/05/28 23:19:25.623062238,"[-2, -5, 1, -1, -1, 0, 0, 1]"
2024/05/28 23:19:25.623074941,"[2, 1, -6, 2, -1, 0, -1, -1]"
2024/05/28 23:19:25.635202713,"[-1, 4, -4, -1, -1, 1, 0, 0]"
2024/05/28 23:19:25.635226076,"[-1, 4, 3, 2, -4, 1, 2, 0]"
2024/05/28 23:19:25.644151165,"[-3, 1, 2, 0, -1, -4, 0, -1]"
2024/05/28 23:19:25.644162119,"[-2, -1, 3, 2, 0, -1, -3, -1]"
2024/05/28 23:19:25.658354372,"[2, -2, 2, 1, 3, 2, -6, -1]"
2024/05/28 23:19:25.658371970,"[6, -2, -2, -4, -1, 1, -2, 1]"
2024/05/28 23:19:25.665195659,"[4, 1, -6, -2, 1, 2, 1, 1]"
2024/05/28 23:19:25.665213627,"[1, 4, -7, -2, -2, -2, -3, -1]"
2024/05/28 23:19:25.681794583,"[-5, -5, -3, -3, -1, -2, -2, 0]"
2024/05/28 23:19:25.681815556,"[-3, -4, 5, 2, -1, 1, 1, 1]"
2024/05/28 23:19:25.683301286,"[-4, -9, -6, -6, -2, 5, -2, 0]"
2024/05/28 23:19:25.683314618,"[-1, 0, -2, -6, 1, 3, 0, 0]"
2024/05/28 23:19:25.704098729,"[0, 4, -1, -18, 1, -5, -1, 0]"
2024/05/28 23:19:25.704120252,"[4, 9, -3, 1, 0, -9, 4, 1]"
2024/05/28 23:19:25.705862704,"[2, -2, 4, 8, 2, -4, 3, -3]"
2024/05/28 23:19:25.705876738,"[-2, -3, 1, 11, 2, 2, 3, -3]"
2024/05/28 23:19:25.718607054,"[-3, 1, 0, 7, 0, -1, 2, -1]"
2024/05/28 23:19:25.718628417,"[0, -3, -3, -3, -1, 0, 0, 3]"
2024/05/28 23:19:25.725360250,"[2, -1, 1, 3, -2, -3, 1, 2]"
2024/05/28 23:19:25.725382137,"[-2, -2, -4, -3, 0, -1, -1, -1]"
2024/05/28 23:19:25.741067486,"[-1, 2, 5, 2, -2, 3, -1, -2]"
2024/05/28 23:19:25.741089241,"[1, 5, 4, -1, -2, 2, -4, -4]"
2024/05/28 23:19:25.747787697,"[3, -2, -5, 2, 0, 1, -2, -1]"
2024/05/28 23:19:25.747808711,"[-1, -5, 1, 0, -1, 0, -1, 0]"
2024/05/28 23:19:25.755338851,"[0, -4, -2, 6, 3, -4, 2, 0]"
2024/05/28 23:19:25.755360066,"[-1, -1, 0, 7, -3, -1, 0, -4]"
2024/05/28 23:19:25.764359598,"[-1, 3, 0, 2, -4, 0, 3, 1]"
2024/05/28 23:19:25.764373404,"[0, 1, 0, 0, -3, 0, 1, -1]"
2024/05/28 23:19:25.778748427,"[-4, -3, -8, 6, 2, 3, 0, 0]"
2024/05/28 23:19:25.778770453,"[-7, -2, -2, -2, 4, 2, -1, 6]"
2024/05/28 23:19:25.785397331,"[-2, -1, -3, -5, 0, -3, -2, 8]"
2024/05/28 23:19:25.785418311,"[0, -4, 0, -3, 2, -2, -4, 7]"
2024/05/28 23:19:25.801081455,"[0, -2, 0, -5, 2, -2, -4, -3]"
2024/05/28 23:19:25.801102592,"[1, 0, 0, 1, 1, 2, 0, -7]"
2024/05/28 23:19:25.807869464,"[1, 2, 0, 0, 2, 2, 3, -7]"
2024/05/28 23:19:25.807890939,"[4, 4, 2, 0, -3, -2, 1, -2]"
2024/05/28 23:19:25.815322626,"[3, -1, 2, 1, -6, 0, -3, -3]"
2024/05/28 23:19:25.815343680,"[0, 0, -2, -6, 2, -1, -3, -4]"
2024/05/28 23:19:25.824361195,"[-4, 5, 1, -9, 2, -1, 7, -4]"
2024/05/28 23:19:25.824374884,"[-1, 1, -1, -2, 0, -3, -1, -5]"
2024/05/28 23:19:25.838746608,"[-2, 0, 1, -1, 2, -3, -3, -2]"
2024/05/28 23:19:25.838767994,"[1, -5, -2, 3, -1, -6, 1, 0]"
2024/05/28 23:19:25.845423984,"[1, -2, 4, 4, -2, -3, -5, 3]"
2024/05/28 23:19:25.845444903,"[2, -5, -2, -2, 1, -2, -2, 1]"
2024/05/28 23:19:25.861116290,"[0, -4, 2, -2, 1, 2, 2, 0]"
2024/05/28 23:19:25.861137450,"[0, 1, -1, -5, 2, 4, -2, 0]"
2024/05/28 23:19:25.867869023,"[0, 0, -1, 6, -2, 1, -3, -1]"
2024/05/28 23:19:25.867890153,"[-3, -1, -5, -1, -2, 1, -3, 1]"
2024/05/28 23:19:25.875471020,"[1, 7, -1, 1, -5, 1, -4, 1]"
2024/05/28 23:19:25.875493898,"[-1, 1, 3, 0, -2, 1, 0, 1]"
2024/05/28 23:19:25.884532218,"[-1, 0, -5, -6, -1, -5, -2, -2]"
2024/05/28 23:19:25.884546146,"[-3, 1, 0, -6, 2, -1, -3, -3]"
2024/05/28 23:19:25.898656454,"[0, -2, -3, -6, -1, -2, 0, 0]"
2024/05/28 23:19:25.898681960,"[0, -1, -1, -4, -1, 1, 0, 0]"
2024/05/28 23:19:25.905407889,"[-1, 0, -2, -3, 2, 2, 1, 2]"
2024/05/28 23:19:25.905431538,"[-3, -3, -2, -1, 0, -1, 1, 1]"
2024/05/28 23:19:25.921085344,"[-1, -1, 2, 1, 0, -3, -1, 1]"
2024/05/28 23:19:25.921109675,"[0, -1, 3, 0, -2, -2, -1, -2]"
2024/05/28 23:19:25.928081398,"[3, -2, 5, 2, 0, 3, 0, 0]"
2024/05/28 23:19:25.928105067,"[2, -4, -6, -3, 1, 5, -1, 0]"
2024/05/28 23:19:25.944385092,"[3, -4, -4, 17, 4, 2, -1, -1]"
2024/05/28 23:19:25.944408487,"[-2, 2, 0, 11, 5, -4, 1, 2]"
2024/05/28 23:19:25.945816550,"[-2, 3, 0, 7, 0, -3, 0, 0]"
2024/05/28 23:19:25.945830423,"[-2, 1, 1, 2, -1, -4, 4, -3]"
2024/05/28 23:19:25.958728845,"[-3, 1, 1, -4, -3, 1, 5, -2]"
2024/05/28 23:19:25.958752906,"[-1, -3, -5, -3, -8, -1, 1, 1]"
2024/05/28 23:19:25.965595506,"[-3, 0, 1, -2, -1, 1, -1, 0]"
2024/05/28 23:19:25.965618987,"[0, 1, 3, -4, -4, 0, -3, 1]"
2024/05/28 23:19:25.981152707,"[-1, 1, 6, 2, -4, -5, -1, -2]"
2024/05/28 23:19:25.981175875,"[2, -3, -1, -5, -6, 1, 1, 1]"
2024/05/28 23:19:25.987971688,"[-2, 1, 0, -2, -5, 1, 0, 2]"
2024/05/28 23:19:25.987995335,"[-1, -2, -3, 3, -5, -2, -2, 2]"
2024/05/28 23:19:26.4260593,"[-3, 1, 1, -3, 1, -3, 3, 2]"
2024/05/28 23:19:26.4283573,"[0, -4, 3, -2, 6, -2, 1, -1]"
2024/05/28 23:19:26.5995310,"[2, -5, -2, -3, 2, -4, -1, -1]"
2024/05/28 23:19:26.6008579,"[1, -8, -1, -3, 4, -2, -3, -1]"
2024/05/28 23:19:26.18782936,"[0, 1, 1, 1, 1, 0, -3, -1]"
2024/05/28 23:19:26.18806098,"[1, 0, -2, 5, 6, 3, -1, -2]"
2024/05/28 23:19:26.25319761,"[-1, 0, -2, -2, -1, 5, -2, 0]"
2024/05/28 23:19:26.25340813,"[-1, 6, 8, 4, 1, 7, -2, -1]"
2024/05/28 23:19:26.41112171,"[-1, -3, 0, -5, -2, 1, -2, -1]"
2024/05/28 23:19:26.41134847,"[-1, 6, -1, -4, 2, -2, 1, 1]"
2024/05/28 23:19:26.48025719,"[-3, 1, -4, 4, 2, -6, -2, 1]"
2024/05/28 23:19:26.48048427,"[-2, -1, -2, 0, 0, -5, 0, 0]"
2024/05/28 23:19:26.64405681,"[2, -5, -4, -6, -2, 3, -2, 0]"
2024/05/28 23:19:26.64427808,"[2, -5, -1, -3, -3, -2, -7, -1]"
2024/05/28 23:19:26.65799475,"[1, -2, 0, -10, -5, 0, 0, -2]"
2024/05/28 23:19:26.65812102,"[-2, -1, -4, -21, -1, -1, 1, 0]"
2024/05/28 23:19:26.78716357,"[-1, -2, -7, 3, 1, -3, 4, 3]"
2024/05/28 23:19:26.78738911,"[-3, 0, -9, 4, 1, -2, 2, 0]"
2024/05/28 23:19:26.93028571,"[-1, 2, 2, 17, 1, 1, -1, -4]"
2024/05/28 23:19:26.93051151,"[-4, -5, 2, 19, 1, 3, 5, -3]"
2024/05/28 23:19:26.101097965,"[2, 5, 9, 4, -3, 0, 3, -1]"
2024/05/28 23:19:26.101120417,"[1, 1, 6, 3, 1, 2, -2, 0]"
2024/05/28 23:19:26.115595511,"[-1, 3, 2, -8, -1, 1, 0, -3]"
2024/05/28 23:19:26.115616812,"[0, 5, -4, -12, 0, -2, 0, -1]"
2024/05/28 23:19:26.124448652,"[4, 1, -3, 0, -1, 1, -1, 0]"
2024/05/28 23:19:26.124470721,"[-2, -2, 3, 4, -4, -4, 4, -1]"
2024/05/28 23:19:26.125766679,"[-3, -6, -1, 2, -5, -8, -3, -1]"
2024/05/28 23:19:26.125779711,"[-2, -4, 4, -3, -9, 2, -2, 0]"
2024/05/28 23:19:26.138740589,"[-4, 1, 1, -5, 17, -5, 1, 0]"
2024/05/28 23:19:26.138764108,"[-1, 1, 0, -3, -1, 7, 4, 1]"
2024/05/28 23:19:26.145223841,"[2, -1, -6, -3, 6, 10, 2, 1]"
2024/05/28 23:19:26.145242175,"[6, -5, 2, 4, -5, 6, 4, 5]"
2024/05/28 23:19:26.161077542,"[8, 9, -2, -6, -3, -37, -8, 4]"
2024/05/28 23:19:26.161094399,"[-6, -4, -9, 2, -12, 17, -7, -9]"
2024/05/28 23:19:26.167957941,"[0, 0, 0, 7, 5, 3, -1, 2]"
2024/05/28 23:19:26.167974543,"[2, 2, -4, -12, -18, -15, -4, -1]"
2024/05/28 23:19:26.184286298,"[-4, -1, -1, -2, 4, 8, 1, -1]"
2024/05/28 23:19:26.184303157,"[-2, -4, 3, 6, 5, -21, 0, 0]"
2024/05/28 23:19:26.185780253,"[4, 20, 10, 27, 6, 16, 1, 0]"
2024/05/28 23:19:26.185793290,"[4, 0, 0, 42, 23, -9, -2, 2]"
2024/05/28 23:19:26.198787773,"[-11, -16, -21, -55, -17, 25, -2, -4]"
2024/05/28 23:19:26.198804582,"[1, 6, 1, -15, -1, -2, 3, 3]"
2024/05/28 23:19:26.205275832,"[2, 9, -3, -10, -9, -16, 2, -19]"
2024/05/28 23:19:26.205292278,"[-12, -16, -8, 4, 6, 3, 4, -2]"
2024/05/28 23:19:26.221182062,"[-2, -5, 1, 30, 0, -2, -2, -1]"
2024/05/28 23:19:26.221219035,"[-8, -13, -8, -24, -5, 2, -4, 9]"
2024/05/28 23:19:26.228041695,"[3, -23, 12, 7, -3, 1, -3, 10]"
2024/05/28 23:19:26.228058674,"[9, 34, 0, -29, -4, -5, -3, 0]"
2024/05/28 23:19:26.244288460,"[1, -2, 3, 23, 4, 4, 3, 3]"
2024/05/28 23:19:26.244305390,"[-6, -2, -9, -8, 2, 5, -1, -5]"
2024/05/28 23:19:26.245916554,"[-4, 1, -1, -15, -9, -10, 3, -14]"
2024/05/28 23:19:26.245930008,"[2, 4, 9, 24, -6, 0, -4, -12]"
2024/05/28 23:19:26.257807581,"[2, -2, 2, -26, -1, 2, 4, 2]"
2024/05/28 23:19:26.257824817,"[12, 26, 0, -6, 15, 4, 5, 7]"
2024/05/28 23:19:26.266971024,"[-2, -6, 2, -41, -7, -3, 3, 15]"
2024/05/28 23:19:26.266984479,"[-2, -10, -7, -14, 10, 1, -2, 10]"
2024/05/28 23:19:26.281081440,"[-3, -19, -3, -5, -6, 7, -7, 0]"
2024/05/28 23:19:26.281098173,"[8, 12, 16, 38, -4, -7, -11, 1]"
2024/05/28 23:19:26.287945732,"[0, 0, -19, 45, 21, 14, -3, 4]"
2024/05/28 23:19:26.287962668,"[0, 12, 4, 80, -6, 5, 2, 0]"
2024/05/28 23:19:26.304385704,"[-14, -30, -6, 50, -1, -6, -7, -2]"
2024/05/28 23:19:26.304402687,"[6, 17, -1, 31, 8, 0, -2, -5]"
2024/05/28 23:19:26.305954525,"[-10, 10, 19, 13, 9, 2, 7, -2]"
2024/05/28 23:19:26.305967948,"[-6, -19, -22, -118, -12, -6, -10, -7]"
2024/05/28 23:19:26.318125434,"[4, 19, 5, -34, 1, -3, 1, -2]"
2024/05/28 23:19:26.318142556,"[-3, -26, -5, 12, 4, 1, 6, 10]"
2024/05/28 23:19:26.326962299,"[1, -6, -6, -6, -8, -1, -7, 1]"
2024/05/28 23:19:26.326975277,"[-4, -22, 11, 58, 6, 0, 11, 8]"
2024/05/28 23:19:26.341248527,"[-7, -20, 1, -46, -9, -10, 1, -8]"
2024/05/28 23:19:26.341265967,"[4, 16, 2, 1, 10, 1, 1, -11]"
2024/05/28 23:19:26.347981274,"[4, 11, -14, -7, -14, -4, -2, 0]"
2024/05/28 23:19:26.347997592,"[-2, -3, 11, 26, 12, 8, 4, -6]"
2024/05/28 23:19:26.364394258,"[-2, 7, -14, 45, -18, 0, 10, 4]"
2024/05/28 23:19:26.364423290,"[1, -16, 5, -9, -8, -5, 2, 10]"
2024/05/28 23:19:26.365910541,"[8, 26, 18, 30, 9, -5, -1, 7]"
2024/05/28 23:19:26.365923627,"[-21, -45, -42, -46, -17, 7, 12, -1]"
2024/05/28 23:19:26.378025957,"[43, 82, 42, -42, 3, 2, 10, -4]"
2024/05/28 23:19:26.378044088,"[-37, -60, -31, -17, 6, -4, 14, -27]"
2024/05/28 23:19:26.387019661,"[26, 17, 34, 53, 18, -1, 33, -12]"
2024/05/28 23:19:26.387033104,"[-13, 44, 0, -9, -27, -4, 18, -18]"
2024/05/28 23:19:26.401087744,"[-21, -65, -40, -2, 1, -17, -2, 1]"
2024/05/28 23:19:26.401106774,"[-16, 10, -8, -4, -20, -8, -42, 1]"
2024/05/28 23:19:26.407837461,"[25, 11, 2, -45, -2, 0, -94, 5]"
2024/05/28 23:19:26.407856031,"[-32, -25, 18, -30, -24, -8, -93, -2]"
2024/05/28 23:19:26.424239368,"[9, 30, -3, 10, 9, -2, -36, 10]"
2024/05/28 23:19:26.424257767,"[10, 22, -17, -83, -37, 4, -50, 10]"
2024/05/28 23:19:26.425748983,"[-12, -35, 8, 38, 21, 15, -77, 20]"
2024/05/28 23:19:26.425762952,"[27, 67, 16, 50, 23, 1, -120, -1]"
2024/05/28 23:19:26.437739772,"[-20, -38, -10, 55, -11, 1, -30, 13]"
2024/05/28 23:19:26.437753374,"[-6, -46, -24, 36, 24, -5, 10, 5]"
2024/05/28 23:19:26.446961213,"[-28, 28, 20, -57, -13, -10, 92, -18]"
2024/05/28 23:19:26.446974690,"[-7, -58, -42, 9, 10, 1, 48, -6]"
2024/05/28 23:19:26.461123485,"[-11, 43, 20, 1, 10, 0, 78, -19]"
2024/05/28 23:19:26.461147077,"[55, 101, 39, -77, -22, 1, 106, 19]"
2024/05/28 23:19:26.468113577,"[-30, -41, -27, 59, 44, 12, 89, -6]"
2024/05/28 23:19:26.468138903,"[0, -67, 9, -61, -20, -13, 76, -5]"
2024/05/28 23:19:26.484453923,"[-7, -18, -48, -15, 6, -3, 104, -25]"
2024/05/28 23:19:26.484479291,"[6, -5, 14, 97, 9, 3, 93, 12]"
2024/05/28 23:19:26.485965557,"[-8, -9, -1, -3, -5, -4, 59, 7]"
2024/05/28 23:19:26.485979059,"[-2, -7, 31, 21, 5, 8, -24, -5]"
2024/05/28 23:19:26.497853895,"[15, -31, -47, -21, -10, 10, -24, 25]"
2024/05/28 23:19:26.497890483,"[12, 0, 40, 52, 17, 7, -53, -4]"
2024/05/28 23:19:26.506848710,"[-14, -25, 7, 62, -15, -6, -46, 0]"
2024/05/28 23:19:26.506864055,"[34, 110, 40, 17, 32, 12, 9, 5]"
2024/05/28 23:19:26.521045921,"[7, -34, 50, 118, 4, 5, -86, -23]"
2024/05/28 23:19:26.521069182,"[-13, 23, -46, -77, -28, -65, 9, -19]"
2024/05/28 23:19:26.527900275,"[-4, -7, -28, -98, -26, -28, 27, -7]"
2024/05/28 23:19:26.527913896,"[16, 28, 32, 48, 20, 0, -19, 8]"
2024/05/28 23:19:26.544224539,"[-11, 9, -17, -53, 0, 14, -19, 18]"
2024/05/28 23:19:26.544238377,"[-10, -83, 15, 29, 2, 28, -52, 12]"
2024/05/28 23:19:26.545848007,"[-14, -2, -16, -47, -8, 14, 4, -5]"
2024/05/28 23:19:26.545861582,"[25, 29, -7, 26, 6, 8, 0, 0]"
2024/05/28 23:19:26.558409374,"[24, 26, 4, -63, -13, 9, -12, -12]"
2024/05/28 23:19:26.558432177,"[-15, -40, -4, -2, 0, 9, -16, -21]"
2024/05/28 23:19:26.567000938,"[2, 5, -11, 21, 0, 1, -28, -14]"
2024/05/28 23:19:26.567013840,"[-11, -18, -19, -13, 0, -2, -4, 1]"
2024/05/28 23:19:26.581062121,"[-9, 11, 21, 21, 6, -11, 1, 4]"
2024/05/28 23:19:26.581075326,"[-7, 2, 2, -10, 10, 7, 8, 0]"
2024/05/28 23:19:26.587926032,"[5, 0, -2, -12, -12, -3, -10, 4]"
2024/05/28 23:19:26.587940376,"[-3, 6, -6, -5, -6, -2, 25, 3]"
2024/05/28 23:19:26.604312119,"[-1, -5, 2, -17, 0, -3, 6, 5]"
2024/05/28 23:19:26.604325706,"[1, 22, 1, 0, 3, -1, -3, -6]"
2024/05/28 23:19:26.605823481,"[10, 8, -8, 13, -4, -2, 7, 1]"
2024/05/28 23:19:26.605836410,"[-8, -29, -15, -32, -6, 0, 27, 14]"
2024/05/28 23:19:26.617795464,"[-6, 8, 10, 7, 6, 1, 73, -41]"
2024/05/28 23:19:26.617809011,"[2, 0, 4, 9, -2, 5, 76, -23]"
2024/05/28 23:19:26.626819553,"[5, -2, 2, -12, -5, 0, -51, -23]"
2024/05/28 23:19:26.626832906,"[-3, -7, -10, -27, 3, 0, 31, -20]"
2024/05/28 23:19:26.640966943,"[-5, 11, 4, -6, 1, -3, -106, -2]"
2024/05/28 23:19:26.640980590,"[-2, 20, -3, 4, 4, -3, -84, -21]"
2024/05/28 23:19:26.647918636,"[2, 9, -8, -11, -4, -6, -2, -39]"
2024/05/28 23:19:26.647932090,"[1, 37, -3, -9, -4, -7, 102, -2]"
2024/05/28 23:19:26.671619002,"[6, 11, 6, 33, -2, 0, 53, 21]"
2024/05/28 23:19:26.671632459,"[-2, -19, 2, 85, 3, 3, 103, 19]"
2024/05/28 23:19:26.673210270,"[-1, -29, -1, 78, 3, -1, -38, 38]"
2024/05/28 23:19:26.673223656,"[-5, -28, -3, 17, 5, -2, 44, 14]"
2024/05/28 23:19:26.677866600,"[4, 5, 15, 1, 2, 0, 114, -3]"
2024/05/28 23:19:26.677879766,"[-8, 4, -10, -9, 2, 5, 71, 8]"
2024/05/28 23:19:26.686899584,"[-7, -2, 0, -53, -7, 1, 55, 20]"
2024/05/28 23:19:26.686912703,"[-7, -5, -9, -39, -5, 0, 69, 27]"
2024/05/28 23:19:26.701079773,"[-4, -4, -2, -38, -3, -1, -9, 7]"
2024/05/28 23:19:26.701093136,"[6, 10, 1, -39, -3, -3, -20, 16]"
2024/05/28 23:19:26.707982210,"[8, 15, 1, -30, -4, -3, -13, 10]"
2024/05/28 23:19:26.707995746,"[3, -7, 1, -30, -2, -5, -128, 13]"
2024/05/28 23:19:26.723517494,"[4, -5, 3, 20, 1, -1, -78, -22]"
2024/05/28 23:19:26.723531098,"[3, -2, -1, 60, 0, 3, -56, -5]"
2024/05/28 23:19:26.730393358,"[7, -1, 0, 25, 8, 4, 6, 9]"
2024/05/28 23:19:26.730407495,"[0, -6, -2, -70, 18, 0, -53, 2]"
2024/05/28 23:19:26.737945641,"[-2, -1, -7, -32, 3, -1, -113, 6]"
2024/05/28 23:19:26.737959770,"[1, 7, 2, 45, -1, -1, -94, -14]"
2024/05/28 23:19:26.747015857,"[6, 2, -7, 61, -10, -6, -72, -16]"
2024/05/28 23:19:26.747034223,"[5, -11, -5, 87, -8, -2, -25, -24]"
2024/05/28 23:19:26.760993913,"[1, 8, 3, 32, 1, -1, -12, 1]"
2024/05/28 23:19:26.761010408,"[-4, -10, 3, -110, 2, 0, -53, 12]"
2024/05/28 23:19:26.767959749,"[-3, -1, 1, -15, 1, -5, 12, 9]"
2024/05/28 23:19:26.767976149,"[-5, -5, 1, 44, 3, -2, 0, 5]"
2024/05/28 23:19:26.783727921,"[-4, -4, -5, 2, -2, -3, 8, 14]"
2024/05/28 23:19:26.783743672,"[0, 4, -1, 9, -2, -5, 9, 11]"
2024/05/28 23:19:26.790550467,"[3, 1, 1, -32, -1, 2, 7, 6]"
2024/05/28 23:19:26.790566803,"[3, -1, -6, 17, -9, 1, 9, -8]"
2024/05/28 23:19:26.798144580,"[2, -9, -4, 24, -9, 2, 9, 3]"
2024/05/28 23:19:26.798160975,"[-1, -2, -1, -5, -1, 1, -8, -4]"
2024/05/28 23:19:26.806833530,"[-1, 1, 3, -22, 3, 0, 4, -9]"
2024/05/28 23:19:26.806846417,"[-3, 0, 3, -13, -4, -4, -4, -7]"
2024/05/28 23:19:26.821104788,"[-1, -1, -2, 4, 0, 1, 8, 3]"
2024/05/28 23:19:26.821117634,"[-1, 6, -7, -9, -3, -1, -7, 0]"
2024/05/28 23:19:26.827941440,"[-1, -3, -1, -13, 6, -1, 3, 0]"
2024/05/28 23:19:26.827954972,"[1, 5, 0, 7, 0, -2, -26, -7]"
2024/05/28 23:19:26.843680976,"[0, 1, -1, -18, -1, 1, 3, 0]"
2024/05/28 23:19:26.843694154,"[-1, -3, 0, -9, 3, 3, 4, -9]"
2024/05/28 23:19:26.850321518,"[-1, -4, 1, 0, -1, 5, -6, -3]"
2024/05/28 23:19:26.850334506,"[-5, -7, -5, -5, -5, 3, -9, 3]"
2024/05/28 23:19:26.865934922,"[-3, -3, -1, -15, 2, -2, 13, 4]"
2024/05/28 23:19:26.865949168,"[-2, -7, -3, -4, 4, -1, -4, -6]"
2024/05/28 23:19:26.866747208,"[1, 2, -2, 3, 0, -1, 11, 0]"
2024/05/28 23:19:26.866760083,"[0, -5, 3, -2, 3, 0, 6, -2]"
2024/05/28 23:19:26.881906385,"[3, 1, 3, 6, 0, -2, 9, 0]"
2024/05/28 23:19:26.881919286,"[2, 6, 7, 7, -2, -1, 5, 3]"
2024/05/28 23:19:26.887989709,"[-3, 1, 2, 2, -2, 3, 7, 0]"
2024/05/28 23:19:26.888003451,"[-1, -3, 0, 4, -1, 4, 7, -3]"
2024/05/28 23:19:26.902994871,"[-4, 0, 0, 3, 0, 3, 3, 0]"
2024/05/28 23:19:26.903007812,"[2, 6, 2, -23, 1, 0, 2, -2]"
2024/05/28 23:19:26.910452943,"[2, 1, -6, -11, 2, -3, 1, -3]"
2024/05/28 23:19:26.910465939,"[3, 8, -2, 2, -2, -3, 6, -8]"
2024/05/28 23:19:26.927628761,"[-3, -7, -7, -18, 2, -4, 3, -5]"
2024/05/28 23:19:26.927649301,"[-3, -3, 0, 7, 0, -3, 2, -1]"
2024/05/28 23:19:26.928418142,"[2, 3, 4, -18, -3, 1, -4, -10]"
2024/05/28 23:19:26.928434717,"[-2, 2, -3, -3, -3, 3, -2, 0]"
2024/05/28 23:19:26.942069690,"[-2, 4, 3, 2, 0, 2, -5, 6]"
2024/05/28 23:19:26.942089040,"[-5, 0, -1, -3, 1, 4, -7, 7]"
2024/05/28 23:19:26.948063747,"[-3, -3, -5, 19, -1, 2, -10, 5]"
2024/05/28 23:19:26.948083272,"[-1, -2, -4, -16, -6, 0, 3, 5]"
2024/05/28 23:19:26.963037362,"[2, 3, 4, -7, -1, 2, 2, -4]"
2024/05/28 23:19:26.963057202,"[0, -3, -3, 3, 1, -3, 4, -10]"
2024/05/28 23:19:26.970400132,"[-2, -7, -1, 7, -2, -5, 3, -2]"
2024/05/28 23:19:26.970419426,"[-1, -2, 1, 6, 1, -4, 1, -2]"
2024/05/28 23:19:26.986201950,"[-3, -2, 3, 12, -1, -2, 4, 7]"
2024/05/28 23:19:26.986221448,"[-3, 4, 4, 15, 2, 2, -4, 7]"
2024/05/28 23:19:26.987115796,"[-4, -1, 1, 1, -1, 2, -6, 1]"
2024/05/28 23:19:26.987135502,"[0, -2, -1, 0, -2, -1, -6, 2]"
2024/05/28 23:19:27.2156647,"[2, -3, -2, 7, 2, -3, -1, 0]"
2024/05/28 23:19:27.2180680,"[4, 0, 0, 0, -2, -1, 2, -4]"
2024/05/28 23:19:27.7867072,"[0, 2, -1, 7, -1, 3, -2, -1]"
2024/05/28 23:19:27.7886566,"[2, 3, -1, 7, -2, 1, 3, 4]"
2024/05/28 23:19:27.22902767,"[0, 2, -6, 3, -1, 4, -2, 3]"
2024/05/28 23:19:27.22915775,"[-2, -2, -4, 13, -2, 1, 0, 1]"
2024/05/28 23:19:27.30386827,"[2, -1, -2, 13, -2, -3, 6, 1]"
2024/05/28 23:19:27.30400541,"[2, 1, 5, 2, -2, -5, 3, -3]"
2024/05/28 23:19:27.45932200,"[-3, 0, 0, 2, -3, -5, -1, -1]"
2024/05/28 23:19:27.45945198,"[-1, -4, -2, -16, -6, -3, -3, -3]"
2024/05/28 23:19:27.46804510,"[4, -4, 0, -18, 2, 1, -5, 3]"
2024/05/28 23:19:27.46817291,"[1, -1, 2, -10, 3, 0, -4, 4]"
2024/05/28 23:19:27.61930644,"[2, 1, 1, -9, 5, 1, 0, -26]"
2024/05/28 23:19:27.61943530,"[-4, 0, 0, -8, 4, -3, 0, -8]"
2024/05/28 23:19:27.67890942,"[-3, 5, -6, -5, 4, -3, 1, -1]"
2024/05/28 23:19:27.67904215,"[-6, 4, -3, 0, -1, -1, -4, 3]"
2024/05/28 23:19:27.82826813,"[-1, 1, -6, -15, -7, -5, -2, 10]"
2024/05/28 23:19:27.82841320,"[-2, -2, -1, -17, -4, 0, 3, 3]"
2024/05/28 23:19:27.90393470,"[1, -8, -1, -15, -1, 2, 4, -2]"
2024/05/28 23:19:27.90415086,"[3, -5, -5, -12, 2, 5, 3, 1]"
2024/05/28 23:19:27.105975762,"[-1, -5, 3, -4, 1, 5, 5, 4]"
2024/05/28 23:19:27.105988739,"[1, -2, -1, -13, 1, -1, -1, 0]"
2024/05/28 23:19:27.106811519,"[-2, -2, -5, -14, -1, -2, -3, -2]"
2024/05/28 23:19:27.106824188,"[-1, -1, -2, -26, -3, 3, 3, -3]"
2024/05/28 23:19:27.121941939,"[-1, -1, 3, -10, 1, 2, 1, 2]"
2024/05/28 23:19:27.121955041,"[-2, 0, 1, 1, 0, -2, 1, -2]"
2024/05/28 23:19:27.127814281,"[0, 0, -2, 8, -4, 0, 5, 0]"
2024/05/28 23:19:27.127827630,"[0, -1, -2, 17, -2, -4, 10, -4]"
2024/05/28 23:19:27.142931060,"[0, -4, 3, 8, -1, -3, 3, 1]"
2024/05/28 23:19:27.142952644,"[-5, -5, 0, 4, 4, -3, 1, 5]"
2024/05/28 23:19:27.150340341,"[-5, 1, 5, 0, -1, -6, -6, 1]"
2024/05/28 23:19:27.150361480,"[-2, 0, 6, 0, 0, -5, -8, -4]"
2024/05/28 23:19:27.166079901,"[1, 6, 0, 21, -1, -2, -5, 0]"
2024/05/28 23:19:27.166101546,"[4, 9, -2, 24, 0, 2, -1, -3]"
2024/05/28 23:19:27.166825877,"[4, 3, -6, 18, -1, 6, 3, -4]"
2024/05/28 23:19:27.166847214,"[3, 5, -5, 5, -5, 4, 3, -2]"
2024/05/28 23:19:27.181933620,"[1, -3, -3, 2, -1, 1, -1, 0]"
2024/05/28 23:19:27.181954493,"[-1, -5, 2, -1, 3, 5, 2, -1]"
2024/05/28 23:19:27.187973910,"[0, -3, 3, -5, 0, -1, -17, 1]"
2024/05/28 23:19:27.187995321,"[0, -2, 1, 1, 0, -3, -2, 0]"
2024/05/28 23:19:27.202919573,"[-1, -6, -10, -7, -1, -2, 2, -5]"
2024/05/28 23:19:27.202932539,"[1, -1, -3, 0, 0, -3, 13, 0]"
2024/05/28 23:19:27.210403213,"[-5, -5, -5, 1, 3, 0, 15, 1]"
2024/05/28 23:19:27.210415599,"[-3, -3, 1, 3, 3, 5, 2, 1]"
2024/05/28 23:19:27.233477014,"[4, -3, 3, -5, -2, -3, -4, 4]"
2024/05/28 23:19:27.233490156,"[6, -3, 0, -5, -2, 2, 0, 0]"
2024/05/28 23:19:27.234371605,"[2, 6, 3, -8, -7, 0, 4, 2]"
2024/05/28 23:19:27.234384363,"[-4, -1, -1, -7, -6, -3, -4, -4]"
2024/05/28 23:19:27.242018504,"[-3, 1, 11, -2, 2, 1, -2, -4]"
2024/05/28 23:19:27.242031434,"[1, -1, 5, -11, -3, -2, -7, -2]"
2024/05/28 23:19:27.247991460,"[-1, 2, 3, 1, 2, -44, 2, -1]"
2024/05/28 23:19:27.248004230,"[1, 5, -5, 11, 5, -9, 0, 2]"
2024/05/28 23:19:27.262968551,"[2, 3, -4, 5, -1, 7, -3, 3]"
2024/05/28 23:19:27.262981481,"[0, 1, -6, 6, 2, 17, 0, -1]"
2024/05/28 23:19:27.270489345,"[1, -2, -4, -2, 0, 24, -1, -3]"
2024/05/28 23:19:27.270502043,"[-3, -8, -6, -6, -2, 1, -1, -2]"
2024/05/28 23:19:27.286157765,"[0, 0, -4, 1, 1, 1, 0, 0]"
2024/05/28 23:19:27.286179234,"[2, 4, -4, -1, -6, -1, -2, 1]"
2024/05/28 23:19:27.287079121,"[-4, 4, -1, -1, -1, 10, 7, -3]"
2024/05/28 23:19:27.287091880,"[-2, -1, 2, 3, 2, 3, 2, -1]"
2024/05/28 23:19:27.302139385,"[-3, -5, -3, 4, -4, 0, -3, 1]"
2024/05/28 23:19:27.302152437,"[-8, -7, -4, -13, -5, -8, -6, 3]"
2024/05/28 23:19:27.308094739,"[-1, -3, 4, -16, 0, -2, -4, 5]"
2024/05/28 23:19:27.308107755,"[-4, -4, -6, -17, 2, 2, 2, 1]"
2024/05/28 23:19:27.323075388,"[3, 4, -3, -2, 2, -4, 3, -1]"
2024/05/28 23:19:27.323090137,"[3, 3, 0, 5, 4, -7, 4, 0]"
2024/05/28 23:19:27.330568318,"[2, 0, -1, 4, 2, -2, 0, 2]"
2024/05/28 23:19:27.330589047,"[1, 4, 5, 9, 0, 0, -3, -1]"
2024/05/28 23:19:27.346095222,"[5, -2, 4, 8, 2, -3, -2, 3]"
2024/05/28 23:19:27.346117175,"[1, -5, 2, 13, -1, -3, -7, 3]"
2024/05/28 23:19:27.346830590,"[1, -4, -1, 7, 0, 8, -1, 2]"
2024/05/28 23:19:27.346852310,"[-4, 0, 1, 4, 3, -1, -4, -1]"
2024/05/28 23:19:27.361931012,"[-1, 9, -2, -19, 2, -5, -3, -3]"
2024/05/28 23:19:27.361943842,"[-2, 6, 4, 0, -5, -4, -3, 0]"
2024/05/28 23:19:27.367938238,"[2, 0, -2, 24, -7, -1, -1, 1]"
2024/05/28 23:19:27.367950816,"[1, 1, -5, 18, -4, 0, -1, 0]"
2024/05/28 23:19:27.382882706,"[-1, -6, -12, 13, -1, 2, 0, -3]"
2024/05/28 23:19:27.382901144,"[-1, -5, -4, -2, -2, 2, 2, -3]"
2024/05/28 23:19:27.390308379,"[4, -2, 2, -3, -3, 4, 4, 5]"
2024/05/28 23:19:27.390323010,"[4, -2, 8, 1, -5, 1, 3, 4]"
2024/05/28 23:19:27.405764026,"[-5, 0, 5, -3, 0, 0, 1, 4]"
2024/05/28 23:19:27.405778524,"[-3, 5, 0, 3, 2, -1, -1, -1]"
2024/05/28 23:19:27.406614163,"[-4, 7, 2, -4, 2, -4, 1, -7]"
2024/05/28 23:19:27.406626131,"[-2, 7, -3, 4, -3, -4, 7, -1]"
2024/05/28 23:19:27.421560240,"[-9, -2, -1, -1, 1, 0, 4, -1]"
2024/05/28 23:19:27.421574287,"[-5, -4, 3, -6, 2, -2, 3, -1]"
2024/05/28 23:19:27.427587749,"[-8, -10, -1, -6, 2, -4, -4, -5]"
2024/05/28 23:19:27.427622154,"[2, -12, -3, -7, 4, -2, -2, 2]"
2024/05/28 23:19:27.442733581,"[-4, -7, -1, 3, -3, -1, -2, -3]"
2024/05/28 23:19:27.442751676,"[-3, 1, -7, 10, -6, -3, 1, 0]"
2024/05/28 23:19:27.450629822,"[0, 3, -2, -1, 2, 5, 0, 0]"
2024/05/28 23:19:27.450644715,"[1, 0, -1, -4, -2, 7, 1, 1]"
2024/05/28 23:19:27.465620687,"[-2, 5, -7, -4, -5, -1, -2, -3]"
2024/05/28 23:19:27.465636387,"[6, 0, 3, -3, -2, -3, 3, -4]"
2024/05/28 23:19:27.466462579,"[1, -1, 3, 3, 5, -6, 3, -5]"
2024/05/28 23:19:27.466474614,"[0, 0, 3, 3, 3, -5, -3, -6]"
2024/05/28 23:19:27.481471589,"[2, 2, 7, 12, 2, 4, -3, 1]"
2024/05/28 23:19:27.481485150,"[-2, 1, -8, 6, -1, 3, -14, 2]"
2024/05/28 23:19:27.487655504,"[-2, -4, -6, 1, -4, 1, -8, 6]"
2024/05/28 23:19:27.487668854,"[3, -3, -3, 2, 0, 1, -3, 5]"
2024/05/28 23:19:27.502805859,"[-1, -6, -1, -1, -4, -3, 5, 5]"
2024/05/28 23:19:27.502821559,"[-3, -2, -1, -2, -1, 2, 11, 1]"
2024/05/28 23:19:27.510440829,"[9, 2, 2, -1, 2, 2, -2, -2]"
2024/05/28 23:19:27.510466447,"[-4, 0, -6, -5, 0, 0, -2, -6]"
2024/05/28 23:19:27.525925993,"[5, 0, 1, -3, -4, -2, 1, 1]"
2024/05/28 23:19:27.525939359,"[6, -4, 3, 8, 3, 1, -6, 4]"
2024/05/28 23:19:27.526905723,"[-2, 2, -1, -5, -11, -4, -4, 3]"
2024/05/28 23:19:27.526918498,"[0, -1, 0, -8, -6, -1, -1, 0]"
2024/05/28 23:19:27.542319867,"[2, 2, -2, -6, 3, 1, -2, -4]"
2024/05/28 23:19:27.542333505,"[-5, -2, -1, -7, 4, -4, 0, -3]"
2024/05/28 23:19:27.547868757,"[1, -2, 1, 1, -2, -3, 3, 0]"
2024/05/28 23:19:27.547881759,"[1, -1, -1, 6, -1, -2, -1, 2]"
2024/05/28 23:19:27.562812902,"[2, -3, -5, -10, 1, -1, 0, -2]"
2024/05/28 23:19:27.562826091,"[11, 2, 0, -2, 4, 0, 3, 0]"
2024/05/28 23:19:27.570317850,"[2, 1, -2, -3, 11, 2, 4, 0]"
2024/05/28 23:19:27.570330560,"[-3, -1, 2, -4, 2, 5, 3, 1]"
2024/05/28 23:19:27.585982917,"[-6, 6, 4, 2, 1, -2, -3, 0]"
2024/05/28 23:19:27.585997070,"[-5, 1, 4, -9, 0, -5, -5, 0]"
2024/05/28 23:19:27.586815614,"[-4, -6, -3, -5, -2, 0, -2, -3]"
2024/05/28 23:19:27.586829048,"[-3, 0, 0, -3, 1, -4, -1, 2]"
2024/05/28 23:19:27.601838014,"[-2, -1, 0, 7, -1, -1, -4, -5]"
2024/05/28 23:19:27.601851691,"[-6, -3, 3, 7, -8, 3, -3, -7]"
2024/05/28 23:19:27.607867743,"[-3, -2, 2, 82, -1, -4, -3, -8]"
2024/05/28 23:19:27.607881494,"[1, 2, 0, 47, -1, 0, -18, -5]"
2024/05/28 23:19:27.622900114,"[1, 7, 3, 19, 1, -4, -2, 0]"
2024/05/28 23:19:27.622917428,"[-1, -3, -1, 7, -4, -8, 5, 2]"
2024/05/28 23:19:27.630290507,"[-9, -2, -1, -32, -3, 0, 5, 2]"
2024/05/28 23:19:27.630306423,"[0, 0, 1, -21, -2, -1, 8, -2]"
2024/05/28 23:19:27.645341274,"[1, -7, 2, -19, 0, 2, 5, -4]"
2024/05/28 23:19:27.645354851,"[5, 3, -1, -27, 3, 8, -1, 0]"
2024/05/28 23:19:27.652900289,"[1, -2, -7, -23, 6, -2, -2, 2]"
2024/05/28 23:19:27.652913463,"[0, -3, 0, -7, 6, -2, 5, 4]"
2024/05/28 23:19:27.661950409,"[-5, -7, -3, -3, 0, 1, 2, 3]"
2024/05/28 23:19:27.661963960,"[-8, -1, -3, 5, -3, 1, 5, -1]"
2024/05/28 23:19:27.667833041,"[-8, 5, -4, -8, -6, 2, 2, -3]"
2024/05/28 23:19:27.667845893,"[-4, 5, 0, 2, -4, 0, 0, -5]"
2024/05/28 23:19:27.682847944,"[1, 1, 6, -1, -4, -5, 2, 0]"
2024/05/28 23:19:27.682861277,"[0, 0, 4, 1, -1, 1, -3, -7]"
2024/05/28 23:19:27.690316033,"[2, 0, -3, -10, -8, 2, -4, 0]"
2024/05/28 23:19:27.690329035,"[4, 2, -2, -16, -4, 1, -6, 0]"
2024/05/28 23:19:27.705297804,"[3, -1, -6, -5, -1, -4, 1, -5]"
2024/05/28 23:19:27.705310870,"[-1, -2, -2, -9, 7, -4, 3, -1]"
2024/05/28 23:19:27.712837381,"[0, -6, -5, -8, 2, 3, 4, -1]"
2024/05/28 23:19:27.712850477,"[-3, -2, 1, -11, 0, 1, 5, 2]"
2024/05/28 23:19:27.721873337,"[-5, 1, -1, -1, -1, -1, 0, 4]"
2024/05/28 23:19:27.721887250,"[-1, 1, 2, 5, -2, -1, -4, 0]"
2024/05/28 23:19:27.727861773,"[3, 2, 1, -1, -2, 1, -7, -4]"
2024/05/28 23:19:27.727874715,"[-5, -3, -6, 9, -2, 1, -3, -2]"
2024/05/28 23:19:27.742782039,"[-10, -2, -1, 6, 0, 1, -2, 0]"
2024/05/28 23:19:27.742795464,"[1, -5, 1, 7, 0, -8, 3, 7]"
2024/05/28 23:19:27.750315157,"[2, -3, 1, 1, -3, -5, 1, 0]"
2024/05/28 23:19:27.750328824,"[3, -7, 3, 1, -3, -4, -4, -2]"
2024/05/28 23:19:27.765170319,"[7, -1, -6, 4, -4, 3, -4, -4]"
2024/05/28 23:19:27.765183432,"[9, 0, -6, 1, -1, 11, -5, -3]"
2024/05/28 23:19:27.773462105,"[5, 4, 4, -4, -1, 6, -3, -2]"
2024/05/28 23:19:27.773475436,"[1, 9, 5, -4, 2, -1, 2, 0]"
2024/05/28 23:19:27.780293458,"[-7, -1, -3, -3, 2, -2, -4, 3]"
2024/05/28 23:19:27.780307335,"[-3, -1, -4, -3, 4, 0, -5, 5]"
2024/05/28 23:19:27.787838502,"[3, 3, 7, 4, 2, -1, -2, 0]"
2024/05/28 23:19:27.787851737,"[-2, -1, 12, 1, -2, 0, 0, 0]"
2024/05/28 23:19:27.802838180,"[5, -6, 7, -7, 0, 0, 7, -2]"
2024/05/28 23:19:27.802851080,"[1, -8, -5, -2, 2, 4, 7, 8]"
2024/05/28 23:19:27.810312818,"[-3, -4, -4, -3, 4, 5, -1, 15]"
2024/05/28 23:19:27.810325871,"[-1, -1, -1, 6, -2, -1, 4, 10]"
2024/05/28 23:19:27.825304544,"[-3, 3, 1, -1, -4, -5, 2, -6]"
2024/05/28 23:19:27.825317654,"[-6, 6, -1, -4, -8, -5, 2, -1]"
2024/05/28 23:19:27.833487070,"[-2, 2, -5, -4, -4, -9, -2, -35]"
2024/05/28 23:19:27.833499942,"[2, -3, -11, 4, -1, -2, -2, -10]"
2024/05/28 23:19:27.848472511,"[3, -7, -8, 3, 2, 4, -6, 1]"
2024/05/28 23:19:27.848485788,"[6, -6, -1, 1, 0, -5, -1, 1]"
2024/05/28 23:19:27.849236030,"[-8, 2, -2, -1, -1, 2, 3, 9]"
2024/05/28 23:19:27.849249120,"[-5, 0, 1, -4, 1, -2, 3, -2]"
2024/05/28 23:19:27.862858244,"[-2, 2, 4, 2, 1, -1, 1, 1]"
2024/05/28 23:19:27.862872951,"[-3, 0, 5, -3, -1, 9, -11, 2]"
2024/05/28 23:19:27.870391112,"[-1, -3, 3, 12, -1, 5, -5, -3]"
2024/05/28 23:19:27.870406732,"[4, 0, -6, -3, -7, -3, -3, -3]"
2024/05/28 23:19:27.885361166,"[-1, 0, -6, 4, -2, -1, 6, -2]"
2024/05/28 23:19:27.885375003,"[-7, 3, 1, 2, 3, -7, 3, -5]"
2024/05/28 23:19:27.893588017,"[1, 1, 3, -4, 9, -3, 0, 3]"
2024/05/28 23:19:27.893601165,"[-1, 3, -7, -4, 6, 4, 0, 0]"
2024/05/28 23:19:27.908482290,"[4, 1, 3, -2, 1, 5, -2, 0]"
2024/05/28 23:19:27.908495510,"[6, 0, 3, -6, 0, 0, 1, -9]"
2024/05/28 23:19:27.909151888,"[-3, -6, 6, -2, -2, -1, -1, 3]"
2024/05/28 23:19:27.909164903,"[-5, 2, 3, -2, -4, 1, 2, 7]"
2024/05/28 23:19:27.922850071,"[-1, 1, -3, 5, -1, -8, -2, 5]"
2024/05/28 23:19:27.922863192,"[-3, 0, -6, 5, -2, -4, 7, 0]"
2024/05/28 23:19:27.930336896,"[-4, -2, 0, 2, 2, -5, 4, -3]"
2024/05/28 23:19:27.930349953,"[2, 2, 1, -1, 2, -4, 3, -9]"
2024/05/28 23:19:27.954154335,"[2, 5, 4, -1, -3, 6, -1, -3]"
2024/05/28 23:19:27.954167584,"[0, -3, 5, -2, -3, 5, -4, -1]"
2024/05/28 23:19:27.954953376,"[5, -7, -5, 1, 1, 1, -3, -3]"
2024/05/28 23:19:27.954966315,"[-2, -7, -9, -3, 5, -2, -7, -5]"
2024/05/28 23:19:27.968342659,"[-4, 1, -6, -7, 1, 2, -3, -2]"
2024/05/28 23:19:27.968359895,"[-6, 0, -1, 0, -1, -2, -3, 2]"
2024/05/28 23:19:27.969167672,"[-6, 2, 0, -5, -8, 0, 4, 8]"
2024/05/28 23:19:27.969180975,"[-2, -2, 5, -1, 3, -4, 4, 0]"
2024/05/28 23:19:27.982826562,"[4, 0, 9, 10, 5, -7, 2, 2]"
2024/05/28 23:19:27.982839973,"[3, 7, 7, 9, -2, -1, -1, -1]"
2024/05/28 23:19:27.990296061,"[1, -2, -1, 5, -3, 0, -8, -1]"
2024/05/28 23:19:27.990308901,"[4, -6, -3, 0, -1, 0, -2, -3]"
2024/05/28 23:19:28.5285360,"[0, -2, 2, -5, 0, 3, -1, 2]"
2024/05/28 23:19:28.5298527,"[2, -2, 2, -2, 2, 1, -1, -2]"
2024/05/28 23:19:28.13460627,"[1, -2, -5, 1, 2, -1, 0, 3]"
2024/05/28 23:19:28.13473586,"[3, -5, 0, -4, -3, 0, 5, 6]"
2024/05/28 23:19:28.28503714,"[0, -2, -1, 2, -2, -3, -4, 5]"
2024/05/28 23:19:28.28518353,"[-2, -2, 0, 3, -5, -2, -6, -1]"
2024/05/28 23:19:28.29256954,"[-1, 7, -1, 2, -5, 5, 0, 0]"
2024/05/28 23:19:28.29269904,"[-6, 1, -2, 2, 3, 2, -1, -4]"
2024/05/28 23:19:28.42845393,"[-3, -2, -7, 2, -1, 4, -2, -4]"
2024/05/28 23:19:28.42859015,"[-1, -6, -4, 0, 2, -4, 2, -5]"
2024/05/28 23:19:28.50470269,"[2, -4, 2, -5, 3, -4, 3, -4]"
2024/05/28 23:19:28.50483343,"[-5, 2, 0, 6, 1, -3, 3, -5]"
2024/05/28 23:19:28.65255399,"[0, 5, -6, -6, -6, 0, 4, -4]"
2024/05/28 23:19:28.65269202,"[4, 9, -11, -1, -1, 1, -1, 2]"
2024/05/28 23:19:28.73607820,"[12, 3, -4, -3, -4, -4, -9, 4]"
2024/05/28 23:19:28.73620697,"[5, -7, -2, -2, -4, -1, -5, -2]"
2024/05/28 23:19:28.88530111,"[-3, -7, 0, -2, -1, 1, -1, -5]"
2024/05/28 23:19:28.88543502,"[-5, -4, -1, -1, 1, -5, 5, 4]"
2024/05/28 23:19:28.89305377,"[-5, 2, 5, 6, 4, -1, 2, -1]"
2024/05/28 23:19:28.89318419,"[-8, 1, -7, 3, 5, 1, -3, 3]"
2024/05/28 23:19:28.102895077,"[-5, -3, -3, -2, 9, -5, -2, 2]"
2024/05/28 23:19:28.102908276,"[3, -4, 0, -8, 7, -1, -2, -2]"
2024/05/28 23:19:28.110348597,"[-1, 2, 11, -4, -1, -1, -1, -6]"
2024/05/28 23:19:28.110361586,"[3, 4, 10, -1, 0, 9, -2, -4]"
2024/05/28 23:19:28.125434229,"[-1, 4, -2, 2, -4, 2, -1, -2]"
2024/05/28 23:19:28.125459064,"[-4, -1, -1, 9, -5, -1, 1, 0]"
2024/05/28 23:19:28.133662620,"[-3, -2, 0, 6, -5, -3, 3, -2]"
2024/05/28 23:19:28.133686078,"[4, 2, 1, 1, -3, -6, -4, -4]"
2024/05/28 23:19:28.148556509,"[7, -5, 0, -11, 1, -3, 3, -2]"
2024/05/28 23:19:28.148580556,"[6, 0, 2, -8, 5, 2, 1, -7]"
2024/05/28 23:19:28.149421029,"[-3, -2, -9, 1, -3, -3, -2, -2]"
2024/05/28 23:19:28.149444548,"[-8, 3, -4, 1, -8, -2, -13, 5]"
2024/05/28 23:19:28.162833083,"[-3, 2, -7, 7, -4, -5, -17, 10]"
2024/05/28 23:19:28.162857113,"[-3, -3, -2, 2, -11, 1, -8, 7]"
2024/05/28 23:19:28.178640654,"[-2, -13, 5, -4, 4, 7, 7, 2]"
2024/05/28 23:19:28.178666344,"[-5, -8, 1, 5, 7, -2, 14, 0]"
2024/05/28 23:19:28.185343219,"[-1, -1, 3, 0, 0, -5, 7, -2]"
2024/05/28 23:19:28.185356761,"[-2, -1, 4, -9, -1, -5, 8, -2]"
2024/05/28 23:19:28.193576684,"[0, 1, -6, -1, 2, 0, 10, 0]"
2024/05/28 23:19:28.193589929,"[2, 5, -5, -1, 0, 4, 4, -1]"
2024/05/28 23:19:28.208540233,"[-2, 2, 2, 3, 3, 4, 0, -2]"
2024/05/28 23:19:28.208553636,"[0, 2, 0, 19, 1, 4, -3, -8]"
2024/05/28 23:19:28.209228569,"[5, 7, -3, 5, -8, -4, -4, -4]"
2024/05/28 23:19:28.209241710,"[7, -2, 1, 8, -5, -6, -6, 0]"
2024/05/28 23:19:28.222927220,"[4, -1, 2, -6, 0, -1, -5, 2]"
2024/05/28 23:19:28.222940844,"[-2, -2, -7, -17, -2, 2, 3, -4]"
2024/05/28 23:19:28.230339781,"[-4, 2, -6, -18, 3, 4, 2, 0]"
2024/05/28 23:19:28.230354046,"[0, 3, -2, -2, 11, 2, 2, -2]"
2024/05/28 23:19:28.245395011,"[-1, 2, 6, 13, 2, 0, -1, -20]"
2024/05/28 23:19:28.245417227,"[1, -6, 0, 11, 0, 2, -8, -1]"
2024/05/28 23:19:28.260993466,"[4, -4, -4, 14, -7, -5, -2, 9]"
2024/05/28 23:19:28.261006377,"[5, 1, 6, 0, -6, 0, 4, 15]"
2024/05/28 23:19:28.268508838,"[-1, 2, 3, 2, -6, 2, 5, 1]"
2024/05/28 23:19:28.268521877,"[-8, 1, 2, 2, 1, -6, 0, -5]"
2024/05/28 23:19:28.269145205,"[-9, 4, -2, -12, 2, -1, -3, -5]"
2024/05/28 23:19:28.269158049,"[-1, -3, -5, -9, 0, -4, -1, -7]"
2024/05/28 23:19:28.282849532,"[-3, -13, -6, -10, 8, -5, 0, -4]"
2024/05/28 23:19:28.282865801,"[6, 0, 4, -8, 1, 2, -3, 4]"
2024/05/28 23:19:28.290389225,"[5, -4, -2, 1, -2, 0, -6, 4]"
2024/05/28 23:19:28.290402168,"[2, -6, -2, -8, -2, 2, -2, 1]"
2024/05/28 23:19:28.305380880,"[0, -1, -1, 0, -4, -3, 1, 4]"
2024/05/28 23:19:28.305395585,"[-4, 2, -8, 6, -3, -4, 6, 3]"
2024/05/28 23:19:28.313417639,"[-5, 1, 0, 1, 4, 4, 5, 2]"
2024/05/28 23:19:28.313430779,"[1, 4, -7, 5, -3, 4, 0, -1]"
2024/05/28 23:19:28.328581137,"[0, -5, -5, 0, -3, 4, -4, 3]"
2024/05/28 23:19:28.328602664,"[1, -7, -1, -3, 3, 0, -7, 5]"
2024/05/28 23:19:28.329275007,"[0, -2, 5, 9, 6, -1, -5, -3]"
2024/05/28 23:19:28.329288049,"[-4, -1, 7, -3, 10, -2, 1, -2]"
2024/05/28 23:19:28.342838559,"[-3, 10, 3, -2, 0, -4, 4, 4]"
2024/05/28 23:19:28.342862028,"[-2, 6, 1, 3, -8, -2, 7, -1]"
2024/05/28 23:19:28.350336544,"[-1, 0, -8, 0, -7, 1, -4, -9]"
2024/05/28 23:19:28.350359423,"[1, -5, -1, 2, -6, 2, -8, -7]"
2024/05/28 23:19:28.365371703,"[0, 3, 0, 0, -1, -2, -2, 1]"
2024/05/28 23:19:28.365389640,"[0, 1, 6, 3, -1, 0, -1, 3]"
2024/05/28 23:19:28.373494824,"[-2, -2, 3, 0, 1, -3, 2, 2]"
2024/05/28 23:19:28.373517783,"[-4, -6, -2, -4, -3, 1, -2, -2]"
2024/05/28 23:19:28.388515323,"[-1, -8, -7, -4, -4, 8, -6, -4]"
2024/05/28 23:19:28.388533908,"[5, -5, 1, 1, 0, 1, -3, -3]"
2024/05/28 23:19:28.389335720,"[5, 4, 8, 0, 0, -5, -1, -4]"
2024/05/28 23:19:28.389357047,"[0, 5, 15, 0, 4, -1, -3, 1]"
2024/05/28 23:19:28.402876870,"[0, -5, 12, 4, 7, -5, 0, 3]"
2024/05/28 23:19:28.402900419,"[-1, -1, -7, -1, 1, -1, 8, -2]"
2024/05/28 23:19:28.410457387,"[0, 0, -4, 0, -1, -1, -4, 1]"
2024/05/28 23:19:28.410480972,"[2, 3, -12, -9, -2, -4, 3, 2]"
2024/05/28 23:19:28.425406645,"[-3, 6, -15, -9, -1, 4, -1, -1]"
2024/05/28 23:19:28.425426895,"[-5, -1, -14, -1, -6, 3, -4, 2]"
2024/05/28 23:19:28.433582625,"[0, 0, 0, -4, -3, 1, 5, 2]"
2024/05/28 23:19:28.433612643,"[2, 0, -1, 5, -6, 0, 6, 1]"
2024/05/28 23:19:28.448629800,"[7, 7, 1, 13, -1, 1, 2, -1]"
2024/05/28 23:19:28.448659045,"[-4, -2, -2, 6, 1, 2, 1, -6]"
2024/05/28 23:19:28.449274171,"[-2, -5, -1, -2, 3, -2, -4, 0]"
2024/05/28 23:19:28.449288009,"[1, -5, 1, -6, 6, -4, -1, -6]"
2024/05/28 23:19:28.462625266,"[6, -4, 3, -10, 0, -4, 3, -1]"
2024/05/28 23:19:28.462642690,"[0, -4, 1, -10, 1, -1, -8, -3]"
2024/05/28 23:19:28.470084366,"[-7, 2, 0, 5, -5, -1, -1, 2]"
2024/05/28 23:19:28.470096779,"[-6, 5, 2, 6, -4, 0, -2, 7]"
2024/05/28 23:19:28.484967700,"[-4, -1, 9, 12, -1, 0, 0, 3]"
2024/05/28 23:19:28.484984110,"[-4, 2, 13, 12, 2, 3, 1, -1]"
2024/05/28 23:19:28.500774933,"[4, 2, 4, -8, -5, -2, -5, -1]"
2024/05/28 23:19:28.500794197,"[0, 1, 0, -8, -2, 2, -5, -2]"
2024/05/28 23:19:28.508286553,"[-7, -3, -11, -1, 0, -2, -3, -2]"
2024/05/28 23:19:28.508301398,"[-3, -1, -9, 1, 0, 0, 2, 3]"
2024/05/28 23:19:28.509051351,"[-1, -9, -6, 6, 3, 3, 6, 6]"
2024/05/28 23:19:28.509066012,"[0, -8, -1, 112, -2, -1, 5, -1]"
2024/05/28 23:19:28.522618346,"[0, -3, 6, 25, 0, 1, 0, -4]"
2024/05/28 23:19:28.522631955,"[-1, 7, -1, 2, 1, -9, -2, -1]"
2024/05/28 23:19:28.538269741,"[2, 4, 3, -25, 7, -1, -3, -3]"
2024/05/28 23:19:28.538291288,"[-2, -5, -1, -51, 3, 3, -2, 1]"
2024/05/28 23:19:28.545004926,"[2, -3, 0, -12, -1, 3, 2, 0]"
2024/05/28 23:19:28.545037005,"[4, 1, -6, 1, -2, 1, 1, 4]"
2024/05/28 23:19:28.553273939,"[2, -6, -9, -7, -3, 0, 7, -2]"
2024/05/28 23:19:28.553291926,"[3, -3, -2, -6, -2, 0, -2, -6]"
2024/05/28 23:19:28.567894284,"[3, 2, 2, 6, -2, -4, -7, -6]"
2024/05/28 23:19:28.567918260,"[3, 5, 1, -11, 1, -6, -4, -8]"
2024/05/28 23:19:28.576148612,"[-5, 5, -3, 8, -2, 1, -4, 0]"
2024/05/28 23:19:28.576171927,"[-6, 2, 1, -10, 4, -9, -7, 3]"
2024/05/28 23:19:28.582937116,"[-1, 1, 0, -10, -4, -5, 3, 3]"
2024/05/28 23:19:28.582961474,"[1, 5, 2, -2, -7, 2, 0, -1]"
2024/05/28 23:19:28.590283387,"[-3, -1, 10, 1, 0, 3, -1, 7]"
2024/05/28 23:19:28.590307389,"[0, -5, 9, -9, 1, 4, 0, 3]"
2024/05/28 23:19:28.605256943,"[-1, -10, 2, -2, 6, 2, 1, 3]"
2024/05/28 23:19:28.605280628,"[2, -6, 3, -1, 3, -5, 2, -2]"
2024/05/28 23:19:28.613688024,"[-3, 2, -9, 1, -3, -2, 1, -5]"
2024/05/28 23:19:28.613701632,"[-6, 4, -10, -18, -5, 0, 1, 0]"
2024/05/28 23:19:28.628045961,"[-5, 2, -5, 5, -6, -2, -3, 1]"
2024/05/28 23:19:28.628061532,"[-1, -7, 2, 2, 9, 4, -7, -1]"
2024/05/28 23:19:28.636142124,"[5, -4, 2, 2, 5, 1, -3, -5]"
2024/05/28 23:19:28.636165974,"[6, 3, -5, -4, 3, -2, 3, -9]"
2024/05/28 23:19:28.643053104,"[5, 9, 1, -9, -2, -7, 4, -7]"
2024/05/28 23:19:28.643076462,"[8, 8, -2, 0, 0, 0, 0, 2]"
2024/05/28 23:19:28.650446317,"[-1, 3, -3, -7, -3, -4, -2, 5]"
2024/05/28 23:19:28.650469575,"[-9, -2, -4, 1, -5, -1, -4, 3]"
2024/05/28 23:19:28.665388257,"[-6, -8, -8, -1, -7, 3, 4, -5]"
2024/05/28 23:19:28.665412136,"[-4, -7, 5, -5, -2, 1, -2, 4]"
2024/05/28 23:19:28.673680822,"[1, -4, 6, -6, 0, -3, -6, -1]"
2024/05/28 23:19:28.673693950,"[6, -5, 2, -6, 2, 0, 1, 2]"
2024/05/28 23:19:28.687985802,"[-3, -1, 7, 1, -3, 2, 2, 2]"
2024/05/28 23:19:28.688009493,"[-3, -8, 3, 12, 4, 3, 2, -2]"
2024/05/28 23:19:28.696064822,"[-1, -8, 3, 8, 1, 1, 0, 0]"
2024/05/28 23:19:28.696087583,"[2, 1, -5, -3, -2, 0, -2, -4]"
2024/05/28 23:19:28.702987838,"[-2, -1, -6, -8, -3, 3, -4, 2]"
2024/05/28 23:19:28.703000953,"[0, -1, -7, -7, -6, -5, 0, 0]"
2024/05/28 23:19:28.710386651,"[5, 4, 3, 4, -3, -6, 1, 4]"
2024/05/28 23:19:28.710399691,"[1, 5, -2, -3, -2, -3, -2, 0]"
2024/05/28 23:19:28.725440866,"[-3, -5, -3, -8, 2, 3, -4, 1]"
2024/05/28 23:19:28.725453831,"[-3, 0, -5, -10, 7, 6, 1, 2]"
2024/05/28 23:19:28.733605403,"[-4, -2, -7, -6, 8, 3, 4, -7]"
2024/05/28 23:19:28.733618521,"[-2, 2, 4, 0, 10, -2, 5, -2]"
2024/05/28 23:19:28.747988924,"[9, 3, 1, -2, 4, -6, -2, -3]"
2024/05/28 23:19:28.748014953,"[1, 1, -1, 1, -7, -4, 4, 1]"
2024/05/28 23:19:28.756160525,"[-2, -7, -2, -4, -9, -1, -6, 1]"
2024/05/28 23:19:28.756186833,"[1, -1, 5, -7, -8, 3, 4, 3]"
2024/05/28 23:19:28.770902898,"[-4, -14, 4, 1, 0, 0, -1, 2]"
2024/05/28 23:19:28.770928813,"[-6, -8, 3, -10, -4, -2, 0, -1]"
2024/05/28 23:19:28.771664525,"[1, -5, -4, 0, 0, -1, 3, -7]"
2024/05/28 23:19:28.771677704,"[0, -2, 0, -2, -7, 0, 0, -7]"
2024/05/28 23:19:28.785179687,"[-1, 4, 4, -2, 2, -1, -2, -3]"
2024/05/28 23:19:28.785204219,"[-3, 7, 2, 4, 2, -2, 1, -4]"
2024/05/28 23:19:28.793463528,"[-2, 2, -7, 10, 4, -2, 5, 2]"
2024/05/28 23:19:28.793486589,"[3, 6, -4, -4, 5, 5, 1, 4]"
2024/05/28 23:19:28.807913033,"[7, 11, -1, -2, -3, 0, 3, -4]"
2024/05/28 23:19:28.807937073,"[6, -1, 0, -4, -4, -5, -2, 2]"
2024/05/28 23:19:28.816160647,"[-4, 3, 0, -5, 2, -5, -5, 2]"
2024/05/28 23:19:28.816184221,"[1, 5, 3, -1, 4, -2, -3, 9]"
2024/05/28 23:19:28.831012964,"[0, -6, 0, -3, 1, 5, 1, 3]"
2024/05/28 23:19:28.831036179,"[0, -5, -6, 6, -1, 2, -1, 2]"
2024/05/28 23:19:28.831905670,"[-5, -2, -7, 8, -5, 1, -2, -2]"
2024/05/28 23:19:28.831929034,"[-9, -6, -2, 7, -5, -2, 4, 1]"
2024/05/28 23:19:28.845221050,"[-5, 3, 1, -2, -4, 1, 1, 0]"
2024/05/28 23:19:28.845244258,"[-3, 1, 7, -8, -1, 0, -3, -2]"
2024/05/28 23:19:28.853645991,"[-5, 2, 7, -14, -1, -4, -6, 2]"
2024/05/28 23:19:28.853669624,"[1, 5, 2, 0, -1, -6, -5, 1]"
2024/05/28 23:19:28.868006617,"[-2, -3, -10, 1, -1, -4, 0, -1]"
2024/05/28 23:19:28.868030705,"[0, 0, -12, 1, -1, 0, 1, 0]"
2024/05/28 23:19:28.876141414,"[7, 1, -2, 3, 5, 7, 5, -3]"
2024/05/28 23:19:28.876165018,"[3, -1, -3, -3, -2, 5, 1, -7]"
2024/05/28 23:19:28.891132263,"[-2, 5, 6, 4, 3, 1, -1, -3]"
2024/05/28 23:19:28.891155205,"[-3, -2, 13, 0, -4, -1, -4, 1]"
2024/05/28 23:19:28.891953146,"[-10, -3, -1, 8, -3, -3, 3, -5]"
2024/05/28 23:19:28.891966038,"[-1, -5, 1, 0, 2, -5, 2, -5]"
2024/05/28 23:19:28.905452631,"[6, -5, -4, -13, 8, 0, -2, -1]"
2024/05/28 23:19:28.905475524,"[1, -3, -3, -2, 4, 5, -2, 4]"
2024/05/28 23:19:28.913500790,"[6, -4, 4, 5, 1, 0, -3, 0]"
2024/05/28 23:19:28.913523182,"[-2, -3, -2, 4, 2, -5, -5, -2]"
2024/05/28 23:19:28.927931630,"[1, 2, -2, 10, -5, -5, 1, 1]"
2024/05/28 23:19:28.927953985,"[1, 8, -2, -1, -3, -3, 3, 0]"
2024/05/28 23:19:28.936192560,"[-6, 7, -5, -2, -2, 2, 6, -1]"
2024/05/28 23:19:28.936215632,"[-1, 4, -1, -2, 2, 7, 3, -5]"
2024/05/28 23:19:28.951048693,"[-4, -2, 3, -8, 1, 3, 1, 2]"
2024/05/28 23:19:28.951069948,"[2, 2, -3, -9, -4, 2, -2, 0]"
2024/05/28 23:19:28.951956791,"[-3, -2, -3, -13, -3, 1, 5, 2]"
2024/05/28 23:19:28.951969763,"[-6, -7, -1, -8, -4, -7, 1, 3]"
2024/05/28 23:19:28.965513043,"[0, -3, 5, 4, 4, -5, -4, 1]"
2024/05/28 23:19:28.965536317,"[-1, -10, -3, 10, 0, -3, -4, -4]"
2024/05/28 23:19:28.973578121,"[5, -8, -1, 10, -2, -2, -3, -4]"
2024/05/28 23:19:28.973601432,"[-4, -5, 2, 4, -4, 1, -1, 2]"
2024/05/28 23:19:28.988071667,"[0, 0, 0, 1, 2, 1, 5, 5]"
2024/05/28 23:19:28.988091407,"[1, 3, 1, -8, 5, 0, -4, 1]"
2024/05/28 23:19:28.996175244,"[3, 5, -1, -3, -4, 2, -8, 2]"
2024/05/28 23:19:28.996196802,"[2, 2, -3, 6, -7, 2, 1, -6]"
2024/05/28 23:19:29.11052446,"[-1, 3, -8, 1, -6, 0, 1, 0]"
2024/05/28 23:19:29.11075219,"[-3, 4, -2, 5, -3, -7, 0, -1]"
2024/05/28 23:19:29.11774642,"[-3, -3, 0, 4, 7, -2, -1, 3]"
2024/05/28 23:19:29.11800935,"[4, 2, -8, -2, 5, -1, 0, 0]"
2024/05/28 23:19:29.25317846,"[-1, 5, 2, -5, 0, 1, 1, -6]"
2024/05/28 23:19:29.25341803,"[-4, 3, 3, -10, 3, 5, 1, -4]"
2024/05/28 23:19:29.34430010,"[-3, 1, -1, -8, -1, -1, -2, -4]"
2024/05/28 23:19:29.34450522,"[-6, -8, 1, 2, 2, 0, 0, -3]"
2024/05/28 23:19:29.47859245,"[-4, -9, -3, 7, 1, -6, -1, 0]"
2024/05/28 23:19:29.47872851,"[4, -10, 1, 6, 0, -2, -1, 5]"
2024/05/28 23:19:29.56759572,"[1, -3, 10, -3, -3, -4, 3, 5]"
2024/05/28 23:19:29.56773699,"[-2, 4, 2, 11, -2, -2, 0, 5]"
2024/05/28 23:19:29.70458062,"[-7, 2, -6, 5, -6, -1, 0, 0]"
2024/05/28 23:19:29.70478038,"[-2, 3, -5, -2, 3, 2, 1, -4]"
2024/05/28 23:19:29.79414813,"[0, -2, -3, -7, 2, 3, -4, -3]"
2024/05/28 23:19:29.79428041,"[5, -7, -2, -15, 3, 7, -5, 1]"
2024/05/28 23:19:29.85432105,"[3, 0, 9, -1, -4, 9, -3, 2]"
2024/05/28 23:19:29.85444991,"[0, 1, -1, 10, -3, 3, 3, 1]"
2024/05/28 23:19:29.94397919,"[4, -7, 0, 2, -2, 0, -5, -2]"
2024/05/28 23:19:29.94411278,"[0, 1, 1, -4, -3, -4, -5, 1]"
2024/05/28 23:19:29.107961555,"[-6, 2, 0, -4, -1, 0, -5, -3]"
2024/05/28 23:19:29.107974750,"[-2, 4, 4, -6, -2, -4, 3, -4]"
2024/05/28 23:19:29.116898425,"[0, 3, -1, 0, -4, -1, 3, 0]"
2024/05/28 23:19:29.116911385,"[-1, -6, -8, -3, -4, 0, 4, -1]"
2024/05/28 23:19:29.130470708,"[-2, 1, -5, -2, 6, -1, 4, 1]"
2024/05/28 23:19:29.130484826,"[-4, 1, -6, -2, 6, 1, 1, -3]"
2024/05/28 23:19:29.139475703,"[2, 4, -1, 2, 2, -3, 1, 0]"
2024/05/28 23:19:29.139489105,"[3, 0, 1, 2, -1, -2, 0, -4]"
2024/05/28 23:19:29.145442440,"[7, -1, -1, -2, -2, 2, -2, -3]"
2024/05/28 23:19:29.145455792,"[-1, -4, 4, 6, -3, 1, 0, 1]"
2024/05/28 23:19:29.154494119,"[-8, -8, -2, 6, -4, 3, -1, 4]"
2024/05/28 23:19:29.154507181,"[-2, 2, 0, 5, 0, 0, -2, -3]"
2024/05/28 23:19:29.167925293,"[1, 0, -2, 1, -3, 1, -3, -1]"
2024/05/28 23:19:29.167938360,"[4, 2, -4, 0, 0, -4, 0, 2]"
2024/05/28 23:19:29.176788559,"[6, 5, -9, 7, 3, -2, -2, -3]"
2024/05/28 23:19:29.176802431,"[-4, -3, 6, 7, 5, 1, 1, 3]"
2024/05/28 23:19:29.190460293,"[-3, -4, 11, 91, 2, -1, 6, 2]"
2024/05/28 23:19:29.190473711,"[0, -9, 11, 118, 0, -4, -5, -2]"
2024/05/28 23:19:29.199279920,"[-4, -3, 0, 41, 3, -2, -3, -1]"
2024/05/28 23:19:29.199293040,"[-4, -3, -12, -9, -2, -3, -2, 1]"
2024/05/28 23:19:29.205490545,"[2, -1, -8, -51, -5, -9, -1, 4]"
2024/05/28 23:19:29.205503742,"[0, 2, -6, -50, 1, -4, 1, 3]"
2024/05/28 23:19:29.214385391,"[4, 0, 4, -22, -1, 1, 0, 4]"
2024/05/28 23:19:29.214398469,"[-1, -3, 1, -12, 2, 4, -1, -2]"
2024/05/28 23:19:29.227975529,"[-6, -26, 5, -30, -5, 1, 1, -1]"
2024/05/28 23:19:29.227989148,"[-4, -6, 3, -30, -4, -2, 4, -5]"
2024/05/28 23:19:29.236939900,"[3, 5, -1, -13, 1, -4, 2, -5]"
2024/05/28 23:19:29.236952936,"[3, 15, 1, 34, 6, 0, 2, -1]"
2024/05/28 23:19:29.250515715,"[-1, 12, -2, 45, 4, -2, 2, 0]"
2024/05/28 23:19:29.250528837,"[-3, 1, -2, -23, -1, -1, -2, -3]"
2024/05/28 23:19:29.259541339,"[2, 1, 5, 67, -2, 3, -3, -3]"
2024/05/28 23:19:29.259554468,"[9, 0, -3, 24, -3, -2, -2, -4]"
2024/05/28 23:19:29.265354234,"[5, 2, -9, 41, 1, 0, 1, 2]"
2024/05/28 23:19:29.265369320,"[2, -10, -11, 16, -11, 3, 7, 0]"
2024/05/28 23:19:29.274380337,"[-4, -2, -6, -67, -4, -1, -1, 2]"
2024/05/28 23:19:29.274393404,"[-8, 1, 5, -61, 2, 3, -4, 1]"
2024/05/28 23:19:29.287910532,"[-3, 6, -1, -53, 5, 5, -8, -3]"
2024/05/28 23:19:29.287925441,"[0, 12, 0, -34, 4, 3, -8, 0]"
2024/05/28 23:19:29.296954670,"[-3, -1, 2, -16, 0, 0, 3, -7]"
2024/05/28 23:19:29.296967574,"[-3, -1, 10, -18, -2, -5, -1, -3]"
2024/05/28 23:19:29.310396316,"[0, -4, 1, -56, 1, -5, 1, -3]"
2024/05/28 23:19:29.310409213,"[0, 0, -1, -15, -3, -2, 3, 1]"
2024/05/28 23:19:29.319462104,"[0, -7, -4, -12, 4, 1, 0, 1]"
2024/05/28 23:19:29.319475155,"[-2, -9, -5, 3, -13, 3, -5, 3]"
2024/05/28 23:19:29.325249413,"[-1, -8, -4, -2, -3, -1, -3, 7]"
2024/05/28 23:19:29.325262421,"[1, 2, -1, 1, -1, -4, -1, 2]"
2024/05/28 23:19:29.334383849,"[5, 6, -1, -7, -1, -10, 1, 2]"
2024/05/28 23:19:29.334396758,"[0, 5, 0, -7, 4, -7, 3, 2]"
2024/05/28 23:19:29.347845224,"[-2, -4, 4, 4, -9, -2, -3, -1]"
2024/05/28 23:19:29.347860644,"[-5, -8, 4, -4, -1, -2, -1, -1]"
2024/05/28 23:19:29.356870734,"[-3, 0, 2, 4, 3, 2, 3, 0]"
2024/05/28 23:19:29.356883653,"[-3, 1, -8, 2, 8, 0, 2, -2]"
2024/05/28 23:19:29.370478517,"[4, 3, -7, -8, 8, 4, -3, -3]"
2024/05/28 23:19:29.370491754,"[3, 0, -4, 0, 6, 5, -3, 1]"
2024/05/28 23:19:29.379496151,"[7, 4, 4, -6, -2, 7, 2, 2]"
2024/05/28 23:19:29.379509694,"[2, -9, 3, -34, -2, 3, 5, 1]"
2024/05/28 23:19:29.385386904,"[-9, 6, 0, -35, -1, -3, 6, -4]"
2024/05/28 23:19:29.385410162,"[-7, 4, -1, -21, -1, -4, 0, -2]"
2024/05/28 23:19:29.394501633,"[-10, -5, -10, 5, -6, -3, -3, 1]"
2024/05/28 23:19:29.394525395,"[3, -6, 7, 58, -1, -3, -4, 2]"
2024/05/28 23:19:29.407945673,"[3, -5, 8, 23, -3, -1, -6, -4]"
2024/05/28 23:19:29.407967812,"[-3, 3, -1, 10, -3, 0, -3, -7]"
2024/05/28 23:19:29.416880538,"[-6, 3, -2, -2, 2, -3, 2, -4]"
2024/05/28 23:19:29.416894707,"[1, 2, -5, -2, -8, -3, 3, 2]"
2024/05/28 23:19:29.430349868,"[-1, 4, -1, 1, 4, -3, 2, 7]"
2024/05/28 23:19:29.430363599,"[4, -2, -2, 2, 3, 3, 0, 2]"
2024/05/28 23:19:29.439383809,"[6, -3, 1, -7, -2, -2, 1, 0]"
2024/05/28 23:19:29.439397303,"[2, 3, -5, -6, -6, -4, 0, -2]"
2024/05/28 23:19:29.445353224,"[6, 0, -1, 0, -7, -4, 2, -1]"
2024/05/28 23:19:29.445366425,"[0, -3, 3, -5, -3, -3, 2, -4]"
2024/05/28 23:19:29.454467146,"[-5, -15, -2, -2, 1, -5, -3, 10]"
2024/05/28 23:19:29.454480836,"[-2, -15, 1, -8, 10, 0, -5, 12]"
2024/05/28 23:19:29.467941187,"[-1, -14, 1, 0, 2, 6, -5, 10]"
2024/05/28 23:19:29.467956304,"[-1, 4, 3, -2, -2, 6, -4, 3]"
2024/05/28 23:19:29.476939901,"[-3, 12, 2, -6, -4, 2, -3, -7]"
2024/05/28 23:19:29.476953961,"[-4, 12, -3, -3, -2, 1, -3, -9]"
2024/05/28 23:19:29.490566052,"[0, 7, 0, -6, 3, -1, 0, -6]"
2024/05/28 23:19:29.490585417,"[1, -9, -1, -5, 3, -6, -8, -7]"
2024/05/28 23:19:29.499461618,"[-1, -2, 5, -4, 0, -3, 2, -2]"
2024/05/28 23:19:29.499474766,"[-1, 7, -3, 0, -3, -2, 2, 0]"
2024/05/28 23:19:29.505392257,"[0, 6, -3, -3, -4, 1, 5, -7]"
2024/05/28 23:19:29.505405892,"[0, 0, 0, -1, -7, 3, 6, -5]"
2024/05/28 23:19:29.514499163,"[2, -1, 0, -2, -5, -1, 2, -3]"
2024/05/28 23:19:29.514512300,"[0, -5, -3, -5, 0, -10, -2, -2]"
2024/05/28 23:19:29.528034361,"[-4, 0, 3, -6, 1, -6, 0, 1]"
2024/05/28 23:19:29.528047564,"[-2, -1, 1, -8, 1, -7, 4, 2]"
2024/05/28 23:19:29.536996637,"[0, 1, 2, -1, 2, 2, -2, -3]"
2024/05/28 23:19:29.537010058,"[2, 0, 3, -2, 2, 5, 0, -2]"
2024/05/28 23:19:29.551107091,"[-6, 0, -8, -3, 5, 4, -7, -2]"
2024/05/28 23:19:29.551122120,"[2, 0, -10, 4, 2, -3, -5, 2]"
2024/05/28 23:19:29.557929323,"[2, 0, -7, 8, 1, 0, -2, 1]"
2024/05/28 23:19:29.557942520,"[1, 2, -7, 15, -5, 2, 5, -3]"
2024/05/28 23:19:29.565435842,"[-6, -3, -4, 10, 0, 3, 5, 0]"
2024/05/28 23:19:29.565450587,"[-5, 2, 6, 9, 1, -2, 1, 0]"
2024/05/28 23:19:29.574367840,"[-1, -6, 5, 4, 3, -2, 0, 0]"
2024/05/28 23:19:29.574381053,"[-4, -4, 7, 0, 2, 1, -5, -1]"
2024/05/28 23:19:29.587907366,"[4, 1, -3, 6, -1, -1, -4, 3]"
2024/05/28 23:19:29.587923564,"[3, -2, -14, 7, 1, 4, 3, 2]"
2024/05/28 23:19:29.597042452,"[2, 6, -7, 9, -3, 3, 3, -2]"
2024/05/28 23:19:29.597055570,"[-1, -4, 2, 4, -1, 2, 0, -1]"
2024/05/28 23:19:29.611252394,"[-5, -4, 4, 3, -1, -4, -6, 0]"
2024/05/28 23:19:29.611265608,"[-4, -4, 3, 3, 0, -3, -5, 2]"
2024/05/28 23:19:29.617989636,"[0, -2, 0, 0, -3, -2, -5, -3]"
2024/05/28 23:19:29.618003699,"[1, 0, 1, 2, -1, 0, -1, -2]"
2024/05/28 23:19:29.625396027,"[6, 4, -2, 3, -3, 0, -1, -2]"
2024/05/28 23:19:29.625409039,"[3, 3, 0, 8, -2, 5, -3, -6]"
2024/05/28 23:19:29.634403051,"[3, -4, 0, 1, 0, -2, -2, -1]"
2024/05/28 23:19:29.634416581,"[0, 0, 0, 33, -1, 2, 0, 1]"
2024/05/28 23:19:29.648030984,"[2, -2, 4, 13, 1, -2, 1, -4]"
2024/05/28 23:19:29.648044743,"[-3, -1, 1, 3, 1, -1, 1, 0]"
2024/05/28 23:19:29.656956061,"[-6, -6, -2, -11, 4, 4, 3, -2]"
2024/05/28 23:19:29.656974496,"[-3, -5, -2, -15, 0, -2, 2, -4]"
2024/05/28 23:19:29.671080666,"[-1, 1, 1, -7, -6, -9, 0, 1]"
2024/05/28 23:19:29.671093868,"[-1, 0, 2, -4, -3, -5, 1, -2]"
2024/05/28 23:19:29.677870608,"[-5, 0, -3, 5, -7, -6, 2, 2]"
2024/05/28 23:19:29.677883695,"[0, 3, -5, -3, 2, -4, 4, 4]"
2024/05/28 23:19:29.694315497,"[0, 2, -6, -5, 2, 2, 2, 3]"
2024/05/28 23:19:29.694329157,"[3, -1, -1, -4, -2, 2, -2, 1]"
2024/05/28 23:19:29.695813396,"[4, 7, -1, 2, 0, 7, -2, -1]"
2024/05/28 23:19:29.695826869,"[3, -1, 1, -1, -3, 2, 1, -3]"
2024/05/28 23:19:29.707879174,"[-1, -1, 1, -2, 6, 2, -1, -2]"
2024/05/28 23:19:29.707892160,"[-2, 2, 0, -2, 7, -4, -3, -1]"
2024/05/28 23:19:29.716818626,"[-4, -2, 4, 5, -2, -1, -3, 2]"
2024/05/28 23:19:29.716831800,"[-4, -5, -4, -5, -6, 3, -2, 1]"
2024/05/28 23:19:29.731011218,"[1, -7, -5, 3, -5, 4, -1, 3]"
2024/05/28 23:19:29.731024126,"[-2, -8, -8, 8, -5, 2, 5, 1]"
2024/05/28 23:19:29.737797048,"[2, -3, -3, 1, 2, -4, 1, 0]"
2024/05/28 23:19:29.737810438,"[3, 4, 6, 1, 1, -3, -2, 2]"
2024/05/28 23:19:29.754124346,"[-4, 2, 3, 0, -2, 2, 1, -1]"
2024/05/28 23:19:29.754137525,"[-5, -2, 1, -2, -6, 5, -1, -3]"
2024/05/28 23:19:29.755792896,"[-1, -2, -1, -7, -1, 4, 0, -9]"
2024/05/28 23:19:29.755806005,"[-4, 2, -2, -6, 1, 1, -4, -7]"
2024/05/28 23:19:29.767841709,"[4, 2, -2, 1, 4, -4, -1, -1]"
2024/05/28 23:19:29.767854543,"[1, 5, -3, -2, 7, 1, -2, 4]"
2024/05/28 23:19:29.776835813,"[-1, 3, 2, -5, 1, 2, -2, 3]"
2024/05/28 23:19:29.776849245,"[4, -1, -1, -8, 0, -1, -4, 2]"
2024/05/28 23:19:29.790956082,"[4, -3, 1, -3, 0, -4, 1, 2]"
2024/05/28 23:19:29.790968807,"[-1, -2, 2, -5, 4, -6, 4, 0]"
2024/05/28 23:19:29.797796496,"[-3, -2, 4, -1, 3, -2, 4, -3]"
2024/05/28 23:19:29.797810139,"[-6, 2, 2, -1, -3, 2, 5, -1]"
2024/05/28 23:19:29.814132690,"[-3, 9, -6, -5, -8, 0, 3, 0]"
2024/05/28 23:19:29.814145920,"[0, -1, -2, -3, -1, 0, 1, 1]"
2024/05/28 23:19:29.815823971,"[3, -4, -2, 4, -1, 2, -2, -3]"
2024/05/28 23:19:29.815837066,"[-2, -4, 0, 6, 1, -2, -5, -7]"
2024/05/28 23:19:29.827910682,"[-2, -5, -4, 2, 0, 0, 2, -2]"
2024/05/28 23:19:29.827923578,"[6, 2, 1, -2, -4, 0, 0, 4]"
2024/05/28 23:19:29.836777171,"[4, -2, 2, -3, 0, -2, 0, 4]"
2024/05/28 23:19:29.836791140,"[-1, -3, -2, -4, 1, -1, -2, -1]"
2024/05/28 23:19:29.851102832,"[-1, -8, 1, -3, 4, 0, -5, -4]"
2024/05/28 23:19:29.851125720,"[-5, 0, 2, -1, 2, -6, -9, 0]"
2024/05/28 23:19:29.857957042,"[-1, 3, 2, 3, 1, -2, -1, 5]"
2024/05/28 23:19:29.857970464,"[2, 2, 2, 5, -4, -2, 4, -3]"
2024/05/28 23:19:29.874248225,"[-2, 2, 0, 6, -4, 0, 4, -4]"
2024/05/28 23:19:29.874264017,"[0, 0, -3, 3, -6, -2, 1, -4]"
2024/05/28 23:19:29.875861068,"[2, 2, -4, 1, -2, -6, -2, 0]"
2024/05/28 23:19:29.875874185,"[2, 2, 1, -3, 1, 1, -1, 2]"
2024/05/28 23:19:29.896772398,"[0, -1, 3, -3, 0, 1, -1, 0]"
2024/05/28 23:19:29.896787533,"[3, 0, 2, -2, 0, 2, -1, -1]"
2024/05/28 23:19:29.898338870,"[-3, 4, 2, -2, 1, 0, 0, 6]"
2024/05/28 23:19:29.898352126,"[-5, -1, -2, -5, 4, 3, 0, 6]"
2024/05/28 23:19:29.911219914,"[-5, 1, 1, 4, 2, 5, 4, -1]"
2024/05/28 23:19:29.911232938,"[-6, 1, -3, -1, -1, 3, 3, -1]"
2024/05/28 23:19:29.918014316,"[-5, -4, -3, -3, -2, 0, 2, -3]"
2024/05/28 23:19:29.918027830,"[4, -2, -4, 2, 1, 0, -2, -3]"
2024/05/28 23:19:29.934309473,"[5, -5, -6, 2, 4, -5, -2, 0]"
2024/05/28 23:19:29.934325273,"[3, 1, 2, 7, 7, -5, -5, -6]"
2024/05/28 23:19:29.935980721,"[1, -3, -4, -2, 1, -5, -4, -2]"
2024/05/28 23:19:29.935994317,"[-1, -3, -5, -7, -3, -3, -6, 4]"
2024/05/28 23:19:29.947897063,"[-7, 1, -2, -2, -7, -2, -3, 5]"
2024/05/28 23:19:29.947909974,"[-5, 0, 0, 3, -6, -1, 6, -1]"
2024/05/28 23:19:29.956937262,"[0, 1, 0, -1, -1, 2, -1, -3]"
2024/05/28 23:19:29.956950300,"[0, 0, 3, 2, -1, 2, -1, 0]"
2024/05/28 23:19:29.971180921,"[5, 2, -1, -3, -3, 2, 0, 0]"
2024/05/28 23:19:29.971194447,"[-1, 1, -3, -8, -1, 5, 3, 3]"
2024/05/28 23:19:29.977972833,"[-1, -2, -1, 5, -2, 3, 2, -3]"
2024/05/28 23:19:29.977987280,"[1, -4, 6, 5, -3, 2, -1, -4]"
2024/05/28 23:19:29.994309125,"[2, -9, -6, -3, -1, 4, -5, -1]"
2024/05/28 23:19:29.994322018,"[2, -4, -4, -5, 5, 1, -1, 5]"
2024/05/28 23:19:29.995962496,"[-5, -1, -5, -5, 0, -2, 2, 4]"
2024/05/28 23:19:29.995975721,"[-7, 2, -6, -4, -3, -4, 5, 5]"
2024/05/28 23:19:30.8017030,"[-5, 7, 6, 7, 0, -9, -2, 1]"
2024/05/28 23:19:30.8031124,"[-1, 4, 3, 2, 2, -6, -4, -1]"
2024/05/28 23:19:30.16818174,"[3, 5, 5, 0, -1, -3, -3, -2]"
2024/05/28 23:19:30.16831818,"[4, 3, 5, -3, 2, -2, 2, -4]"
2024/05/28 23:19:30.31144892,"[0, -1, -5, -7, -1, 1, 3, -5]"
2024/05/28 23:19:30.31160634,"[0, -6, -6, -6, 0, 1, 2, -2]"
2024/05/28 23:19:30.37921805,"[3, -3, -3, 0, 1, 0, 2, -4]"
2024/05/28 23:19:30.37934974,"[0, 0, -3, 5, 2, -3, -1, 2]"
2024/05/28 23:19:30.54281043,"[-1, -2, 1, 6, -3, 2, -1, 0]"
2024/05/28 23:19:30.54297027,"[-1, -6, -3, 1, -6, -4, -2, 3]"
2024/05/28 23:19:30.55939364,"[-5, -2, -4, -3, -2, 0, -1, 2]"
2024/05/28 23:19:30.55952569,"[-2, -8, 2, 2, 5, 2, -1, -2]"
2024/05/28 23:19:30.67882411,"[0, -2, 4, -1, 5, 6, -2, -1]"
2024/05/28 23:19:30.67895568,"[-3, 3, 6, 3, 4, 1, -2, -4]"
2024/05/28 23:19:30.76928804,"[-3, 1, 3, 5, -2, 2, -3, -4]"
2024/05/28 23:19:30.76942008,"[3, 3, 0, 0, -1, -6, -1, -6]"
2024/05/28 23:19:30.91076382,"[0, 1, 2, -3, -2, -4, 2, -4]"
2024/05/28 23:19:30.91090844,"[-2, -2, -1, 1, -6, -3, 6, 0]"
2024/05/28 23:19:30.97698548,"[-2, 0, -7, 3, -1, -1, 4, 6]"
2024/05/28 23:19:30.97711886,"[-2, 2, -8, 3, -3, -1, 2, 3]"
2024/05/28 23:19:30.114327984,"[3, -4, -2, -6, -5, -2, -3, 5]"
2024/05/28 23:19:30.114342692,"[6, 3, -4, -5, 2, 0, -7, 1]"
2024/05/28 23:19:30.115871323,"[0, 1, 0, -5, 2, 0, -3, 2]"
2024/05/28 23:19:30.115884473,"[-4, -1, 1, -3, -4, 1, -2, -4]"
2024/05/28 23:19:30.127953786,"[-4, 6, 1, -2, 1, 2, 1, -5]"
2024/05/28 23:19:30.127966784,"[-4, 1, 2, 4, 0, 5, -2, -1]"
2024/05/28 23:19:30.136948710,"[0, -3, 4, 3, 2, 0, 2, -1]"
2024/05/28 23:19:30.136961619,"[1, -5, 2, 1, 1, -1, 6, -4]"
2024/05/28 23:19:30.151069856,"[2, -7, 0, 5, -1, -4, 2, -2]"
2024/05/28 23:19:30.151085116,"[0, -5, -2, 0, -1, 2, -2, -1]"
2024/05/28 23:19:30.157903617,"[0, 1, 1, 0, 0, 6, -4, 0]"
2024/05/28 23:19:30.157916836,"[-1, 4, 3, -4, 2, 1, -3, 2]"
2024/05/28 23:19:30.174311909,"[-1, 1, -3, -3, 1, -8, -2, 3]"
2024/05/28 23:19:30.174325025,"[0, 1, -4, -3, -4, -2, -2, 3]"
2024/05/28 23:19:30.175848642,"[3, 2, -6, -3, -3, -3, -4, 1]"
2024/05/28 23:19:30.175861719,"[0, -2, -5, -1, 0, 1, -1, 2]"
2024/05/28 23:19:30.187920113,"[1, -2, 5, 4, 2, 2, 2, 1]"
2024/05/28 23:19:30.187933791,"[5, -3, 2, 1, -3, 1, 0, 2]"
2024/05/28 23:19:30.204427168,"[-1, -4, 0, -1, -5, -2, 2, -1]"
2024/05/28 23:19:30.204440412,"[-3, 1, -6, -1, 0, -2, 0, 1]"
2024/05/28 23:19:30.211164798,"[-4, 3, -5, -1, 2, -1, -4, -3]"
2024/05/28 23:19:30.211178381,"[-1, 4, -3, -1, 4, 0, 2, -4]"
2024/05/28 23:19:30.217716561,"[2, 1, 3, -1, 2, 1, -1, -6]"
2024/05/28 23:19:30.217730062,"[-1, 0, 3, -1, -2, -3, -1, 0]"
2024/05/28 23:19:30.234291652,"[-7, -5, 7, 8, -4, -6, 1, 3]"
2024/05/28 23:19:30.234307100,"[-7, -3, 9, 2, 1, -4, 3, 5]"
2024/05/28 23:19:30.235776566,"[0, 3, 1, -4, -2, -2, 4, 2]"
2024/05/28 23:19:30.235789813,"[8, -2, -2, -8, 1, 1, 1, -2]"
2024/05/28 23:19:30.247969274,"[5, -3, -11, 0, 0, 2, -3, -1]"
2024/05/28 23:19:30.247982825,"[2, 0, -7, 4, -1, 0, -5, -3]"
2024/05/28 23:19:30.256832708,"[-5, -1, 0, 4, -6, 0, -1, 1]"
2024/05/28 23:19:30.256847018,"[-3, 4, 2, -1, -4, 3, -1, -1]"
2024/05/28 23:19:30.271046101,"[0, 3, 2, -3, -2, 2, 0, -5]"
2024/05/28 23:19:30.271061221,"[1, -2, 0, -2, -1, -3, 3, -3]"
2024/05/28 23:19:30.277924880,"[-2, -6, -2, 2, 1, -1, 1, -4]"
2024/05/28 23:19:30.277938790,"[0, -5, -1, -3, 1, -3, -2, -4]"
2024/05/28 23:19:30.294292978,"[3, -4, -2, -2, 1, 1, -3, -1]"
2024/05/28 23:19:30.294308225,"[0, -4, -1, 3, 4, -1, -1, 1]"
2024/05/28 23:19:30.295935010,"[-2, -1, 4, 2, 4, -1, -4, 1]"
2024/05/28 23:19:30.295948006,"[-3, 2, -6, 3, -2, 0, 2, -1]"
2024/05/28 23:19:30.307934600,"[-5, 2, 0, -1, -4, 0, 3, -1]"
2024/05/28 23:19:30.307948767,"[-5, 1, 0, 0, -2, 4, -3, -2]"
2024/05/28 23:19:30.316596899,"[1, -1, -4, -7, 1, -1, -1, -3]"
2024/05/28 23:19:30.316619469,"[2, -1, -5, -1, 3, -4, -4, 1]"
2024/05/28 23:19:30.331103003,"[2, 2, 1, -6, -3, -3, -1, -2]"
2024/05/28 23:19:30.331124772,"[1, 5, 4, 0, -3, -2, 3, -1]"
2024/05/28 23:19:30.337884290,"[-1, -3, 5, 3, -1, 1, -2, 0]"
2024/05/28 23:19:30.337907516,"[-3, -2, 3, 4, -3, -2, -4, 1]"
2024/05/28 23:19:30.354300339,"[-2, -3, -7, 5, 2, 2, 0, 3]"
2024/05/28 23:19:30.354322883,"[1, -6, -7, -2, 3, -3, 0, 2]"
2024/05/28 23:19:30.355853850,"[1, 1, -9, -2, 3, 1, 1, -1]"
2024/05/28 23:19:30.355867145,"[1, -4, -1, -7, 1, -2, 4, 0]"
2024/05/28 23:19:30.367605870,"[0, 0, 5, 1, 2, -1, 4, -1]"
2024/05/28 23:19:30.367621248,"[-1, 6, 4, -2, -3, 0, 1, -6]"
2024/05/28 23:19:30.376592119,"[-2, 4, -1, -4, -7, -1, -2, -2]"
2024/05/28 23:19:30.376606309,"[-4, -1, 2, 0, -4, 0, -1, -1]"
2024/05/28 23:19:30.390741086,"[0, -1, -4, -3, 1, -2, -2, 0]"
2024/05/28 23:19:30.390761353,"[3, -4, 3, 7, 0, 1, -3, -4]"
2024/05/28 23:19:30.397542506,"[3, -2, 9, 4, 1, 2, -3, -5]"
2024/05/28 23:19:30.397557762,"[3, 4, 2, 2, -2, 3, -3, 0]"
2024/05/28 23:19:30.413170208,"[-4, 0, -3, 0, -2, 0, -2, 2]"
2024/05/28 23:19:30.413187405,"[-4, -5, -8, -1, 1, -2, -1, 5]"
2024/05/28 23:19:30.420048258,"[-3, -5, -1, 4, -1, -5, -6, 8]"
2024/05/28 23:19:30.420063906,"[-1, 0, 2, 3, 0, -2, -4, 4]"
2024/05/28 23:19:30.427682849,"[3, -2, -3, -6, -5, -5, 2, -2]"
2024/05/28 23:19:30.427699116,"[2, 3, -5, -2, 0, 0, 4, -5]"
2024/05/28 23:19:30.436661199,"[2, 1, -3, -1, 3, 0, 10, -3]"
2024/05/28 23:19:30.436676814,"[3, 0, -3, 3, 2, 2, 6, 0]"
2024/05/28 23:19:30.451186895,"[-1, 4, 0, 2, -4, -1, -4, -2]"
2024/05/28 23:19:30.451205927,"[-5, 1, 1, -2, -3, -3, -5, -3]"
2024/05/28 23:19:30.458177939,"[-4, 2, 1, -7, 1, 2, -4, -6]"
2024/05/28 23:19:30.458198363,"[-1, -3, 2, -2, 3, 3, -8, -5]"
2024/05/28 23:19:30.473665612,"[3, -5, 1, 1, 7, 7, -4, -1]"
2024/05/28 23:19:30.473686548,"[0, -5, 0, -1, -1, 1, 2, 4]"
2024/05/28 23:19:30.480423278,"[-2, -3, -4, 6, 0, -6, 2, 5]"
2024/05/28 23:19:30.480441455,"[-5, -1, -4, 0, 0, -5, 2, 0]"
2024/05/28 23:19:30.487985071,"[-3, 5, -2, -2, 4, -5, 6, -2]"
2024/05/28 23:19:30.488005837,"[3, 5, -3, -3, -2, -2, 3, 0]"
2024/05/28 23:19:30.496774727,"[1, 0, -2, 3, -6, 2, 0, 2]"
2024/05/28 23:19:30.496787732,"[3, -1, 2, 3, -2, 1, -2, 1]"
2024/05/28 23:19:30.511136676,"[-1, -9, 1, 1, -1, 2, -4, -3]"
2024/05/28 23:19:30.511157588,"[-5, -5, 3, -4, -1, 3, 1, 0]"
2024/05/28 23:19:30.517957734,"[-2, -4, -5, 2, -1, -1, 0, 2]"
2024/05/28 23:19:30.517978389,"[-2, -1, -4, -3, 0, -1, 1, 2]"
2024/05/28 23:19:30.533770926,"[-3, 3, 2, 0, -2, -1, 0, -2]"
2024/05/28 23:19:30.533800932,"[-2, 6, 4, 0, 0, 3, 1, -4]"
2024/05/28 23:19:30.540352882,"[2, 2, 4, -5, 2, 1, -1, -2]"
2024/05/28 23:19:30.540373007,"[3, -1, 1, -3, 2, -4, 0, -1]"
2024/05/28 23:19:30.548145101,"[5, 0, -5, -2, -3, -5, 1, 1]"
2024/05/28 23:19:30.548167806,"[-2, -9, -11, -2, -5, -1, -2, 0]"
2024/05/28 23:19:30.556872593,"[-1, 0, 2, 2, -2, 1, -3, -2]"
2024/05/28 23:19:30.556887297,"[-4, -2, 6, 1, 0, 0, -2, -2]"
2024/05/28 23:19:30.571281416,"[-6, 0, 3, 0, 3, 1, -4, 0]"
2024/05/28 23:19:30.571304895,"[-1, 5, 1, 3, 0, -1, -3, 2]"
2024/05/28 23:19:30.577827652,"[1, 2, -3, -3, 0, -1, 1, -2]"
2024/05/28 23:19:30.577852761,"[-2, 2, 0, -4, -3, 4, 2, 0]"
2024/05/28 23:19:30.593682116,"[3, -4, -1, -4, -2, 2, 1, 0]"
2024/05/28 23:19:30.593705858,"[3, -2, 1, 0, -2, 1, -3, 1]"
2024/05/28 23:19:30.600536995,"[1, -6, -4, 6, 1, -1, -1, -2]"
2024/05/28 23:19:30.600561341,"[0, 0, -5, 3, 1, -5, 4, -2]"
2024/05/28 23:19:30.607996803,"[0, -3, 0, 4, -1, 1, 2, 1]"
2024/05/28 23:19:30.608019829,"[0, -1, 0, -4, 1, -4, 1, 1]"
2024/05/28 23:19:30.616958788,"[-1, -1, 0, -5, 1, -1, 1, 0]"
2024/05/28 23:19:30.616971636,"[-3, -2, -1, -1, -4, 2, -3, -1]"
2024/05/28 23:19:30.631150296,"[0, 0, -4, -1, -2, 2, 3, 5]"
2024/05/28 23:19:30.631174280,"[4, 2, -6, 3, 0, -3, 0, 0]"
2024/05/28 23:19:30.637900567,"[1, 0, 2, 0, 1, -4, -3, 0]"
2024/05/28 23:19:30.637914035,"[-1, -3, 1, -3, -2, -1, -3, -4]"
2024/05/28 23:19:30.653819064,"[-3, 3, 3, 1, -1, 1, -2, -2]"
2024/05/28 23:19:30.653842857,"[1, 3, 3, 2, 4, 1, -4, -7]"
2024/05/28 23:19:30.660501817,"[-3, 2, 0, -1, -1, 2, -6, -2]"
2024/05/28 23:19:30.660524982,"[-3, 2, 1, 0, 4, -3, -2, 2]"
2024/05/28 23:19:30.676859976,"[0, -1, -3, 0, 3, 0, -1, 3]"
2024/05/28 23:19:30.676884542,"[4, -4, 0, 3, -1, 3, 0, 1]"
2024/05/28 23:19:30.678289406,"[3, 2, -3, -1, -1, 2, 1, 1]"
2024/05/28 23:19:30.678302395,"[-2, 0, -1, 0, -4, 2, 1, 0]"
2024/05/28 23:19:30.691196818,"[-2, -2, 1, -4, -2, -1, 1, -3]"
2024/05/28 23:19:30.691220392,"[-6, 0, 3, -3, 3, -5, 1, -2]"
2024/05/28 23:19:30.697976735,"[-5, -6, 1, -2, -4, 2, 2, 0]"
2024/05/28 23:19:30.698000492,"[1, -4, -1, -1, -2, 1, -1, 0]"
2024/05/28 23:19:30.713661927,"[1, -1, -2, 1, 2, -6, 0, 2]"
2024/05/28 23:19:30.713685897,"[3, -6, -2, -3, -7, -5, -2, -3]"
2024/05/28 23:19:30.720466840,"[0, -1, -1, -2, -4, -9, -1, -5]"
2024/05/28 23:19:30.720490586,"[-2, 3, -2, 0, -1, -4, 3, -1]"
2024/05/28 23:19:30.736876173,"[-3, 1, -3, 1, 3, 0, 3, -2]"
2024/05/28 23:19:30.736900166,"[0, -2, 5, 2, 3, 5, -1, 3]"
2024/05/28 23:19:30.738437924,"[3, -2, 0, -1, 2, 1, -1, 3]"
2024/05/28 23:19:30.738451329,"[2, -5, 0, 1, -1, 3, -1, -1]"
2024/05/28 23:19:30.751075846,"[1, -1, 0, 0, -4, 2, 1, -6]"
2024/05/28 23:19:30.751099583,"[-2, 3, -5, -1, -1, -1, 0, -2]"
2024/05/28 23:19:30.757925108,"[-1, 7, -6, 0, -2, -2, -5, -2]"
2024/05/28 23:19:30.757947759,"[0, 4, -4, 1, -1, -2, -1, 1]"
2024/05/28 23:19:30.773484146,"[-2, 0, 5, -1, 0, -4, -4, 1]"
2024/05/28 23:19:30.773510536,"[-2, -4, 5, -1, -1, -4, -2, 0]"
2024/05/28 23:19:30.780453394,"[-1, 0, 0, 0, 0, -2, 0, 0]"
2024/05/28 23:19:30.780476390,"[-3, 0, -2, -3, -2, -1, -2, -3]"
2024/05/28 23:19:30.796773240,"[2, -2, -4, -2, -1, 2, -3, -1]"
2024/05/28 23:19:30.796795220,"[-1, -5, -2, 0, 0, 3, 3, 0]"
2024/05/28 23:19:30.798262323,"[-4, -9, -3, -1, 0, 1, 4, 1]"
2024/05/28 23:19:30.798276138,"[-1, -6, 1, 0, 2, 2, 3, -1]"
2024/05/28 23:19:30.811010810,"[-1, 1, 1, 0, 4, -3, 2, -5]"
2024/05/28 23:19:30.811032581,"[2, 1, -2, 1, 1, -1, -2, -1]"
2024/05/28 23:19:30.817924565,"[0, 1, -6, -1, 0, 1, 0, 1]"
2024/05/28 23:19:30.817944978,"[0, 1, -2, 1, -1, 0, -3, 1]"
2024/05/28 23:19:30.833411976,"[-2, 0, -1, 0, -6, 1, -4, 1]"
2024/05/28 23:19:30.833434597,"[-7, 2, 3, -1, -4, -2, -3, 0]"
2024/05/28 23:19:30.840457941,"[-3, 2, 5, -1, -1, -3, 3, -4]"
2024/05/28 23:19:30.840478508,"[1, 3, 0, -2, 0, -2, 1, -2]"
2024/05/28 23:19:30.856686541,"[3, 1, 0, 1, 0, -3, 0, 2]"
2024/05/28 23:19:30.856707593,"[4, -3, -4, -1, -4, -2, 0, 4]"
2024/05/28 23:19:30.858365234,"[7, -2, 0, -2, -2, 2, 0, 0]"
2024/05/28 23:19:30.858379137,"[6, 2, -2, -2, 3, -2, -4, -1]"
2024/05/28 23:19:30.871132512,"[1, 2, -4, 0, 2, -1, -3, -3]"
2024/05/28 23:19:30.871153665,"[-4, -2, -8, 1, -2, -2, 0, 2]"
2024/05/28 23:19:30.878027908,"[-2, -1, 5, 1, -1, -1, -2, -1]"
2024/05/28 23:19:30.878047523,"[-3, -4, 5, 4, -1, -2, 4, -1]"
2024/05/28 23:19:30.893687808,"[1, -2, 1, -1, -2, 0, 2, 2]"
2024/05/28 23:19:30.893708563,"[-2, -6, 2, -5, 0, 2, -2, -1]"
2024/05/28 23:19:30.900419551,"[-1, 1, 3, -3, 0, 0, -2, -2]"
2024/05/28 23:19:30.900440529,"[-3, 4, -2, -2, 0, -1, -3, 5]"
2024/05/28 23:19:30.924286909,"[-3, 0, -4, 5, 1, 0, -1, 6]"
2024/05/28 23:19:30.924307757,"[3, 2, -2, 5, 1, -2, 3, 1]"
2024/05/28 23:19:30.925901013,"[-1, -4, -4, 3, 1, 2, 0, -2]"
2024/05/28 23:19:30.925914573,"[-4, -3, 1, -1, 0, 2, -4, -7]"
2024/05/28 23:19:30.931202267,"[-1, -5, -5, 0, -4, 3, -2, -1]"
2024/05/28 23:19:30.931224095,"[1, 3, -3, -2, -2, -1, 0, -4]"
2024/05/28 23:19:30.937870259,"[4, 0, -1, 1, -2, -3, -1, -2]"
2024/05/28 23:19:30.937892599,"[7, 2, 1, -1, 1, -5, 1, -3]"
2024/05/28 23:19:30.953679678,"[0, -4, 1, -1, 2, -6, -2, 0]"
2024/05/28 23:19:30.953701682,"[-4, -4, -6, -6, -1, 0, -1, 1]"
2024/05/28 23:19:30.960341916,"[-3, 0, -5, -6, -1, 3, 0, 3]"
2024/05/28 23:19:30.960363368,"[-3, 1, -1, -4, -1, 2, -2, -2]"
2024/05/28 23:19:30.976920484,"[0, -2, 7, -4, 0, 1, 0, -2]"
2024/05/28 23:19:30.976942551,"[1, 2, 11, 3, 0, 0, -2, -4]"
2024/05/28 23:19:30.978491087,"[-4, -1, 0, 6, -1, -3, -1, 0]"
2024/05/28 23:19:30.978504468,"[0, -1, -8, 0, -3, 0, 0, 1]"
2024/05/28 23:19:30.991276362,"[1, 6, -5, -2, -1, 0, 1, -1]"
2024/05/28 23:19:30.991298044,"[1, 4, -3, 0, -1, -2, 0, 1]"
2024/05/28 23:19:30.998081169,"[-1, 0, 1, 1, 1, 1, 0, 0]"
2024/05/28 23:19:30.998106344,"[1, -5, 1, 2, -2, 0, 0, -2]"
2024/05/28 23:19:31.13778055,"[-1, -6, 0, 3, -1, 0, -1, -4]"
2024/05/28 23:19:31.13800153,"[0, 0, -1, -3, 2, 3, -3, -1]"
2024/05/28 23:19:31.20456997,"[-1, 2, 1, 2, -1, -1, 0, -1]"
2024/05/28 23:19:31.20479006,"[-3, 4, 3, -3, 2, -3, 2, 0]"
2024/05/28 23:19:31.36915492,"[-2, 1, 2, -2, 1, -3, 2, -1]"
2024/05/28 23:19:31.36936412,"[1, -2, 0, 2, 0, 3, -1, 2]"
2024/05/28 23:19:31.38498416,"[3, -1, -3, -5, -1, -1, -2, 3]"
2024/05/28 23:19:31.38512082,"[0, -7, -5, -3, -3, -4, -2, 2]"
2024/05/28 23:19:31.51254553,"[-2, -2, -1, -1, -5, -7, -4, -1]"
2024/05/28 23:19:31.51276089,"[-5, -3, -2, 1, -2, -5, -1, -1]"
2024/05/28 23:19:31.57912706,"[-1, -2, 1, 0, 4, 0, -2, -3]"
2024/05/28 23:19:31.57932161,"[-2, -2, -3, 0, 3, 4, 2, 3]"
2024/05/28 23:19:31.73606639,"[1, 4, -2, 1, 2, 4, 1, -1]"
2024/05/28 23:19:31.73627329,"[1, -1, -3, 4, 0, 0, 1, -5]"
2024/05/28 23:19:31.80514701,"[2, 2, -1, 2, -2, -2, -1, -3]"
2024/05/28 23:19:31.80535882,"[5, 0, -2, -3, -3, -1, -2, -2]"
2024/05/28 23:19:31.96891370,"[-2, 3, 5, -1, -1, 0, 6, 2]"
2024/05/28 23:19:31.96912511,"[-3, 2, 3, 2, 2, -2, 4, 2]"
2024/05/28 23:19:31.98464400,"[-5, 1, -3, 1, 1, -3, 1, 1]"
2024/05/28 23:19:31.98478395,"[-3, -4, -1, 2, 2, -1, 0, -3]"
2024/05/28 23:19:31.110509964,"[0, -2, -7, -1, 0, 0, -4, -2]"
2024/05/28 23:19:31.110533725,"[-1, 1, 3, -2, -2, 0, -5, -1]"
2024/05/28 23:19:31.119397237,"[-2, -3, 0, -5, -1, -3, -3, 1]"
2024/05/28 23:19:31.119411248,"[-1, 3, 2, -4, 0, 0, 0, 2]"
2024/05/28 23:19:31.133581581,"[-1, 0, -2, 0, 2, 0, 1, 2]"
2024/05/28 23:19:31.133608046,"[-1, 1, 1, -2, -2, 0, 2, -3]"
2024/05/28 23:19:31.140367161,"[0, -6, -3, -1, -3, 2, 1, -2]"
2024/05/28 23:19:31.140390990,"[1, -5, 1, 9, 2, 3, -1, -3]"
2024/05/28 23:19:31.156659888,"[1, -1, 0, 1, -3, 0, -2, 0]"
2024/05/28 23:19:31.156683730,"[-1, 5, 1, 0, 3, -4, -1, 3]"
2024/05/28 23:19:31.158159784,"[-3, 3, 5, -4, -2, 1, -4, -1]"
2024/05/28 23:19:31.158173424,"[-6, 0, -1, -4, -2, 1, -1, -2]"
2024/05/28 23:19:31.170425107,"[-3, -3, -1, 1, -1, -3, -1, -6]"
2024/05/28 23:19:31.170449328,"[2, -1, -4, -2, -1, 0, -1, -3]"
2024/05/28 23:19:31.179574950,"[6, 0, -3, -1, 2, -2, 2, 1]"
2024/05/28 23:19:31.179588442,"[6, 4, -3, -1, 1, -1, 2, 3]"
2024/05/28 23:19:31.193680680,"[3, -3, 0, 0, 4, 3, 0, 2]"
2024/05/28 23:19:31.193702845,"[1, -4, 1, -1, 0, -2, -2, 0]"
2024/05/28 23:19:31.200338268,"[1, -1, 2, -2, 3, -2, -1, 0]"
2024/05/28 23:19:31.200361210,"[-1, -6, 0, -1, -3, -2, 2, -3]"
2024/05/28 23:19:31.216064017,"[-2, 1, -5, 0, -2, 1, 1, -2]"
2024/05/28 23:19:31.216085891,"[-3, 0, -7, 2, -1, 4, -2, 1]"
2024/05/28 23:19:31.216801057,"[-5, 0, -4, 2, -2, 1, -3, 3]"
2024/05/28 23:19:31.216824104,"[-1, -3, 0, 2, -1, 2, -3, 3]"
2024/05/28 23:19:31.238559873,"[1, -5, 0, 1, 1, -1, -4, 0]"
2024/05/28 23:19:31.238583167,"[1, 0, 3, 1, 1, -1, -2, -4]"
2024/05/28 23:19:31.239389373,"[-3, 5, 3, 1, 1, 2, -3, -6]"
2024/05/28 23:19:31.239412489,"[1, 6, 3, -4, 5, -2, 0, -3]"
2024/05/28 23:19:31.254393036,"[4, 2, 2, -2, -2, -6, -1, 1]"
2024/05/28 23:19:31.254406579,"[0, 3, -4, 0, -2, -3, -3, 3]"
2024/05/28 23:19:31.260429922,"[0, -3, -2, -2, -1, -2, -2, 3]"
2024/05/28 23:19:31.260453476,"[-2, -3, -2, 0, -8, 1, 3, 0]"
2024/05/28 23:19:31.276165141,"[-3, 0, -1, -2, 1, 3, 2, -2]"
2024/05/28 23:19:31.276188252,"[-2, -4, 6, -1, 0, 1, 4, -3]"
2024/05/28 23:19:31.277041019,"[-2, -1, -2, 0, 0, 3, 6, -6]"
2024/05/28 23:19:31.277063354,"[-4, 0, -4, 2, 2, 0, -2, -4]"
2024/05/28 23:19:31.298590697,"[-2, -2, -4, -2, 1, -3, -5, -4]"
2024/05/28 23:19:31.298613890,"[-2, -1, -4, -3, -2, -3, 0, -1]"
2024/05/28 23:19:31.299455292,"[1, -2, -1, 1, -1, 1, -1, 1]"
2024/05/28 23:19:31.299479116,"[1, 1, -2, -6, -7, 1, -1, 3]"
2024/05/28 23:19:31.314520321,"[2, 0, 1, 3, -8, 2, 1, 1]"
2024/05/28 23:19:31.314533668,"[3, 0, 0, 3, -2, 1, 1, 2]"
2024/05/28 23:19:31.320545300,"[3, -2, 2, -3, 3, 0, 3, 0]"
2024/05/28 23:19:31.320567811,"[-1, 4, 3, -2, 8, -1, 4, -1]"
2024/05/28 23:19:31.336179233,"[-2, 2, 2, -4, 7, 2, 3, -2]"
2024/05/28 23:19:31.336203101,"[1, 0, -3, 1, 3, -5, -1, 0]"
2024/05/28 23:19:31.336876920,"[0, -1, -5, 1, -6, -5, -2, 2]"
2024/05/28 23:19:31.336899653,"[-2, -3, -2, 4, -6, -4, -5, 2]"
2024/05/28 23:19:31.358168884,"[-2, -5, -2, 5, 2, 1, -4, -1]"
2024/05/28 23:19:31.358183477,"[-1, -2, -4, 4, 1, 2, -3, -2]"
2024/05/28 23:19:31.358976422,"[-2, 2, -1, 0, 1, 0, 1, -2]"
2024/05/28 23:19:31.358987941,"[1, 2, -1, -4, 2, -4, 0, 0]"
2024/05/28 23:19:31.374357198,"[-3, 1, 6, -6, 0, -3, 2, -2]"
2024/05/28 23:19:31.374371214,"[-1, 0, 4, -8, 2, -3, 3, -1]"
2024/05/28 23:19:31.380417282,"[-1, -2, -2, -2, -1, 0, -1, 0]"
2024/05/28 23:19:31.380439939,"[-4, -2, -3, 5, 0, 3, -3, -4]"
2024/05/28 23:19:31.395527070,"[-1, -4, -4, -1, 0, 4, -4, -3]"
2024/05/28 23:19:31.395550260,"[-1, -5, 1, -7, -3, 3, -3, -1]"
2024/05/28 23:19:31.403093160,"[1, 0, 0, -2, -5, 2, 1, -2]"
2024/05/28 23:19:31.403116384,"[-3, 1, 2, 1, -3, -1, 1, 2]"
2024/05/28 23:19:31.418361627,"[-1, 3, 1, 3, 1, -4, -1, 1]"
2024/05/28 23:19:31.418376648,"[-2, -2, -2, -1, -3, -1, 0, 1]"
2024/05/28 23:19:31.419078265,"[0, -2, 1, 5, 1, -1, -2, -1]"
2024/05/28 23:19:31.419106204,"[5, 3, -2, 5, 1, 1, -1, -2]"
2024/05/28 23:19:31.434131131,"[1, 1, 3, 0, 0, 0, -1, 1]"
2024/05/28 23:19:31.434143381,"[-3, 3, -3, -4, 1, 1, 1, 0]"
2024/05/28 23:19:31.440191003,"[-1, 3, 2, -2, -3, -5, -1, 1]"
2024/05/28 23:19:31.440209186,"[-3, -7, -3, -5, 1, -4, 0, 0]"
2024/05/28 23:19:31.455016740,"[3, -3, -2, -4, 2, 1, -2, -2]"
2024/05/28 23:19:31.455032904,"[1, 0, 0, -3, 4, 5, 0, -2]"
2024/05/28 23:19:31.462575314,"[1, -1, -1, 1, 1, 2, -1, -3]"
2024/05/28 23:19:31.462592195,"[1, 2, 5, 2, 1, 1, 0, -1]"
2024/05/28 23:19:31.478782378,"[-1, -2, -4, 2, -3, -2, -1, 2]"
2024/05/28 23:19:31.478804676,"[-4, -1, -2, 3, -6, -3, -1, -1]"
2024/05/28 23:19:31.479428268,"[-4, 3, 0, 0, 1, -3, 2, 2]"
2024/05/28 23:19:31.479443474,"[1, 2, 0, 2, 1, -1, -1, -1]"
2024/05/28 23:19:31.494398610,"[3, -4, -4, -2, 1, -2, 1, 0]"
2024/05/28 23:19:31.494412041,"[7, -2, 0, 0, 4, 0, -2, 3]"
2024/05/28 23:19:31.500351929,"[5, -2, -1, -1, -1, 3, -4, 0]"
2024/05/28 23:19:31.500373271,"[0, -4, 0, 0, -3, 5, -5, -2]"
2024/05/28 23:19:31.515354777,"[-4, -1, 0, -2, -2, 0, 1, 1]"
2024/05/28 23:19:31.515376168,"[-5, -2, 2, 2, 1, -2, 1, -2]"
2024/05/28 23:19:31.522836496,"[-5, -2, 1, 1, 4, -5, 3, -1]"
2024/05/28 23:19:31.522856931,"[-3, 1, -3, -1, -1, -1, 2, 0]"
2024/05/28 23:19:31.538565279,"[0, 1, -5, 5, -1, 1, -1, 0]"
2024/05/28 23:19:31.538585407,"[1, 0, -2, 2, -4, 4, 1, 1]"
2024/05/28 23:19:31.539443111,"[-4, -5, -4, -4, 2, 4, -2, 0]"
2024/05/28 23:19:31.539464470,"[-4, 3, -2, -3, 0, 0, -2, -1]"
2024/05/28 23:19:31.554406782,"[1, 1, 5, -1, -1, -2, 0, 1]"
2024/05/28 23:19:31.554424254,"[2, -3, 2, 1, 1, -6, -2, 1]"
2024/05/28 23:19:31.560423420,"[2, -2, 0, 5, 4, -2, -1, -3]"
2024/05/28 23:19:31.560440812,"[0, 1, 1, 8, -1, 0, 0, 2]"
2024/05/28 23:19:31.575419975,"[1, 7, 2, 1, -2, 1, 2, -1]"
2024/05/28 23:19:31.575437072,"[-1, 3, -6, 3, -2, 2, 3, -1]"
2024/05/28 23:19:31.582857114,"[-2, 0, -4, -4, -1, 2, 0, 1]"
2024/05/28 23:19:31.582874103,"[-3, -7, -7, -3, 0, -3, 0, -2]"
2024/05/28 23:19:31.598633807,"[-4, -5, -2, -6, -3, -2, -3, 1]"
2024/05/28 23:19:31.598657796,"[-3, 2, 9, -1, -5, -6, 0, -3]"
2024/05/28 23:19:31.599348827,"[-2, -1, 1, -4, 0, 0, -1, -3]"
2024/05/28 23:19:31.599362347,"[3, -7, 1, -4, -1, 0, 1, 0]"
2024/05/28 23:19:31.614428281,"[3, -2, 0, -4, 0, 3, 0, 0]"
2024/05/28 23:19:31.614442197,"[5, -3, -1, 2, 2, 3, 0, 1]"
2024/05/28 23:19:31.620434842,"[-3, 1, 1, 0, 1, -5, 3, 2]"
2024/05/28 23:19:31.620454114,"[-2, -1, 5, -4, 2, 2, -1, 0]"
2024/05/28 23:19:31.635450039,"[-3, 3, 2, 0, 2, 1, 0, -1]"
2024/05/28 23:19:31.635466758,"[-5, 0, -4, 4, 2, 0, -3, -2]"
2024/05/28 23:19:31.642901964,"[-1, -2, -4, -5, -1, -1, -1, -1]"
2024/05/28 23:19:31.642918629,"[-1, 1, -2, 1, -5, -4, 1, 3]"
2024/05/28 23:19:31.658527868,"[-1, -2, -1, -6, 1, -3, 0, 1]"
2024/05/28 23:19:31.658544945,"[1, 6, 0, -2, 0, 3, -2, 3]"
2024/05/28 23:19:31.659331047,"[1, 0, 1, 4, -1, 1, -3, -1]"
2024/05/28 23:19:31.659348021,"[3, -1, -6, -13, -2, -1, 1, -2]"
2024/05/28 23:19:31.674283761,"[1, 9, 2, 7, 1, -2, -3, -5]"
2024/05/28 23:19:31.674297353,"[0, -3, -2, -5, -5, -3, 2, -3]"
2024/05/28 23:19:31.680421880,"[1, -5, -4, -2, 2, -2, 2, -1]"
2024/05/28 23:19:31.680438786,"[-1, -1, -2, 14, 1, -1, -1, 1]"
2024/05/28 23:19:31.695402500,"[1, 2, -1, 17, 1, 1, 1, 0]"
2024/05/28 23:19:31.695419677,"[-2, -2, -13, -41, -8, -2, -5, 0]"
2024/05/28 23:19:31.702766804,"[-2, -2, 3, 8, -4, 4, -2, 0]"
2024/05/28 23:19:31.702783091,"[9, 2, -1, -7, -6, 3, -6, -2]"
2024/05/28 23:19:31.718530282,"[-2, -14, -4, -16, 3, 4, 0, -2]"
2024/05/28 23:19:31.718548472,"[0, -2, -5, -3, 9, 5, 6, 2]"
2024/05/28 23:19:31.719345121,"[-1, 1, -11, -65, -5, -2, -3, 3]"
2024/05/28 23:19:31.719362475,"[-2, 9, 2, -10, 0, -4, -3, 2]"
2024/05/28 23:19:31.732898871,"[2, 6, 3, -7, 0, -6, 4, -1]"
2024/05/28 23:19:31.732915869,"[0, -5, 13, 22, 1, -5, -4, -3]"
2024/05/28 23:19:31.740367198,"[3, 0, 5, 12, 0, -6, 1, 1]"
2024/05/28 23:19:31.740384384,"[-3, 0, 8, 20, -4, 6, 16, 4]"
2024/05/28 23:19:31.755299710,"[-5, -2, -4, -11, 5, 1, 3, 0]"
2024/05/28 23:19:31.755316959,"[1, 1, 10, 34, -9, -1, 3, 0]"
2024/05/28 23:19:31.762811024,"[10, 18, 4, -20, 18, 2, -17, -6]"
2024/05/28 23:19:31.762828023,"[-4, -14, -10, 2, -1, -10, 8, 4]"
2024/05/28 23:19:31.778492692,"[-6, -9, -11, 32, -4, 1, -1, -3]"
2024/05/28 23:19:31.778509952,"[-15, -38, -17, -41, -11, -2, -4, -3]"
2024/05/28 23:19:31.779362966,"[9, 27, 25, 9, 0, 1, -4, -5]"
2024/05/28 23:19:31.779380274,"[2, -8, 2, -39, 3, 3, -7, -5]"
2024/05/28 23:19:31.794324406,"[9, 28, -6, -70, -8, 3, 1, 4]"
2024/05/28 23:19:31.794341058,"[10, 26, 6, 70, -2, -2, -6, 6]"
2024/05/28 23:19:31.800279035,"[-12, 8, -2, -39, -3, 1, -4, -5]"
2024/05/28 23:19:31.800292663,"[-13, -36, -3, -42, -18, -5, -9, -3]"
2024/05/28 23:19:31.815366957,"[-19, 6, 4, 110, 12, 1, 15, -10]"
2024/05/28 23:19:31.815380786,"[10, 6, 6, 103, 9, -2, 18, 10]"
2024/05/28 23:19:31.822909110,"[10, -7, -37, -52, -17, -1, 10, 13]"
2024/05/28 23:19:31.822927031,"[-19, -12, 26, 60, 12, -2, -11, -22]"
2024/05/28 23:19:31.838522644,"[28, 63, 32, -77, -11, -16, 12, 7]"
2024/05/28 23:19:31.838540487,"[-1, -40, -20, 79, 64, 27, 24, 18]"
2024/05/28 23:19:31.839230681,"[-6, 1, -21, -71, -53, -2, 34, 5]"
2024/05/28 23:19:31.839248106,"[7, 10, 22, 66, 28, 7, 33, 13]"
2024/05/28 23:19:31.854299930,"[-23, -51, -29, -30, 5, -11, -11, 16]"
2024/05/28 23:19:31.854313629,"[-10, -36, -2, -16, -23, -20, 13, 1]"
2024/05/28 23:19:31.860271049,"[-14, -13, -4, 37, 11, -8, -24, -16]"
2024/05/28 23:19:31.860289260,"[22, -4, 20, 109, 17, 9, -29, 46]"
2024/05/28 23:19:31.875340574,"[-5, -21, -24, -65, 3, 10, 104, 3]"
2024/05/28 23:19:31.875353499,"[-6, 37, 50, 43, 8, 5, 98, -8]"
2024/05/28 23:19:31.882861607,"[-12, -3, 31, 43, 28, 3, 68, 14]"
2024/05/28 23:19:31.882879904,"[-2, -59, -76, -85, -34, -3, -64, 14]"
2024/05/28 23:19:31.898736885,"[-19, -68, 8, 127, 51, 12, -128, -12]"
2024/05/28 23:19:31.898756266,"[-9, -23, -38, -128, -44, -21, -128, -22]"
2024/05/28 23:19:31.899484730,"[-23, 53, 38, 43, 20, 4, -116, -38]"
2024/05/28 23:19:31.899503344,"[66, 80, 55, -16, 23, -4, -13, -7]"
2024/05/28 23:19:31.912999001,"[-17, -47, -37, 15, -4, -1, -88, -21]"
2024/05/28 23:19:31.913017382,"[6, 45, -35, -110, -24, 7, 19, -32]"
2024/05/28 23:19:31.920547733,"[12, 5, 14, 90, 2, 4, 66, 22]"
2024/05/28 23:19:31.920566451,"[-37, -67, -31, -47, 34, 6, 83, -13]"
2024/05/28 23:19:31.935462464,"[39, 92, 51, -57, -83, -56, 90, 16]"
2024/05/28 23:19:31.935481131,"[-16, 26, 24, 50, 21, -17, 42, 23]"
2024/05/28 23:19:31.943019113,"[13, -86, -93, -118, -32, 2, 0, 0]"
2024/05/28 23:19:31.943037718,"[-9, 27, 54, -5, -1, 13, 9, -12]"
2024/05/28 23:19:31.958624498,"[-5, -15, -46, 36, -3, 34, 17, -7]"
2024/05/28 23:19:31.958637575,"[-27, -52, -2, 112, 23, 13, -5, 3]"
2024/05/28 23:19:31.959412250,"[9, -31, 7, 57, -6, 1, 38, 24]"
2024/05/28 23:19:31.959425177,"[4, 67, -34, -124, -26, -2, 82, -11]"
2024/05/28 23:19:31.973013575,"[14, 84, 25, 63, 77, 14, 71, -1]"
2024/05/28 23:19:31.973033224,"[8, -91, -20, -103, -58, -8, 45, -6]"
2024/05/28 23:19:31.980617004,"[-1, 60, -12, 42, -14, -4, 6, -16]"
2024/05/28 23:19:31.980637847,"[2, -4, 17, 31, -6, -9, -38, -9]"
2024/05/28 23:19:31.995519946,"[12, 13, 41, 39, 53, 6, -3, -18]"
2024/05/28 23:19:31.995538880,"[16, -15, -49, -86, -50, -13, 6, -14]"
2024/05/28 23:19:32.3021409,"[11, 8, 54, 107, 75, 14, -5, 3]"
2024/05/28 23:19:32.3041325,"[-6, 41, 18, 59, -17, -5, -18, 9]"
2024/05/28 23:19:32.18464716,"[1, -27, -55, -81, -68, -6, -7, 29]"
2024/05/28 23:19:32.18484587,"[-14, 11, 38, 43, 50, 19, -8, -1]"
2024/05/28 23:19:32.19165088,"[31, -8, 11, 23, -31, -7, 24, 30]"
2024/05/28 23:19:32.19178359,"[-9, -12, -30, -19, 17, 4, 1, 8]"
2024/05/28 23:19:32.32778247,"[-16, -39, -25, -42, -28, 1, -9, -3]"
2024/05/28 23:19:32.32797685,"[39, 78, 71, 127, 44, 8, -68, -3]"
2024/05/28 23:19:32.40387761,"[-27, -35, -34, -120, -31, -13, -18, -14]"
2024/05/28 23:19:32.40407297,"[-10, -6, -27, -41, -13, -4, 2, -17]"
2024/05/28 23:19:32.55285285,"[-3, 13, 11, -21, -8, 0, 15, -6]"
2024/05/28 23:19:32.55304393,"[-12, -13, -9, -38, 5, -5, 21, 3]"
2024/05/28 23:19:32.62891437,"[2, 16, 7, 38, 16, 4, 17, -3]"
2024/05/28 23:19:32.62910267,"[1, 0, -3, 40, 3, 4, 26, -3]"
2024/05/28 23:19:32.78565824,"[2, -9, 14, -16, -4, 1, -12, -5]"
2024/05/28 23:19:32.78584264,"[5, 14, 2, -6, -3, 4, -7, 2]"
2024/05/28 23:19:32.79495142,"[-7, -10, 9, 14, 1, -2, 9, -6]"
2024/05/28 23:19:32.79507801,"[-2, 1, -6, -6, -11, -7, -16, -10]"
2024/05/28 23:19:32.92769552,"[2, -25, 13, 6, -2, -2, -7, 0]"
2024/05/28 23:19:32.92785308,"[5, 11, -7, -14, 0, -4, -21, -47]"
2024/05/28 23:19:32.100540319,"[-5, -2, -9, -21, -1, -6, -76, -14]"
2024/05/28 23:19:32.100561414,"[-5, -25, -3, -25, -5, -3, -38, -21]"
2024/05/28 23:19:32.115514111,"[0, -1, 6, 8, 0, -1, -85, -16]"
2024/05/28 23:19:32.115527688,"[-1, 20, -3, -23, -7, 6, -29, -9]"
2024/05/28 23:19:32.122960007,"[-3, 3, 1, -3, -3, 4, 97, -44]"
2024/05/28 23:19:32.122985755,"[2, 32, 0, 24, -1, -2, 50, 21]"
2024/05/28 23:19:32.138750035,"[-4, 13, -1, 16, 6, 0, 126, -5]"
2024/05/28 23:19:32.138764370,"[2, 21, -10, -12, -4, -4, 24, 1]"
2024/05/28 23:19:32.139323245,"[3, -7, -4, 20, 1, -3, -6, 33]"
2024/05/28 23:19:32.139345460,"[3, -7, 1, 37, 3, -5, 105, 24]"
2024/05/28 23:19:32.152793052,"[-5, -18, -1, 29, -3, -2, 63, 39]"
2024/05/28 23:19:32.152819614,"[-6, -29, -2, -8, 0, 1, 127, 62]"
2024/05/28 23:19:32.160370195,"[-5, -3, 2, 61, 1, 1, 108, -4]"
2024/05/28 23:19:32.160416866,"[-10, -8, 0, 16, 0, 0, 2, -25]"
2024/05/28 23:19:32.175187491,"[-13, -9, 4, 68, 0, 0, 127, -16]"
2024/05/28 23:19:32.175213433,"[1, -12, 1, -28, 4, 4, 7, -63]"
2024/05/28 23:19:32.182733718,"[3, -24, 0, -60, 6, 3, -88, -4]"
2024/05/28 23:19:32.182759984,"[7, -11, -2, -75, 0, -4, -31, -16]"
2024/05/28 23:19:32.198580263,"[3, 0, 0, 10, 6, 2, -84, 26]"
2024/05/28 23:19:32.198605630,"[0, 3, -3, -110, 1, 1, -58, 63]"
2024/05/28 23:19:32.199442241,"[3, 11, 2, 15, 2, 4, -108, 24]"
2024/05/28 23:19:32.199468074,"[2, -12, -4, 35, -4, -2, -118, 6]"
2024/05/28 23:19:32.221227248,"[2, -15, -6, 73, -1, -2, -70, 13]"
2024/05/28 23:19:32.221253470,"[3, 4, 0, 127, -4, 0, -13, -3]"
2024/05/28 23:19:32.222031161,"[0, 2, 4, 106, -2, -1, -1, 4]"
2024/05/28 23:19:32.222056932,"[1, -1, 7, 125, -2, 0, -19, 11]"
2024/05/28 23:19:32.235432326,"[-2, 3, 4, 17, -3, 0, -45, 3]"
2024/05/28 23:19:32.235458616,"[-4, 9, -2, 33, -5, -5, 10, 13]"
2024/05/28 23:19:32.243091253,"[-6, -8, -5, -47, -2, -4, 28, -32]"
2024/05/28 23:19:32.243117693,"[-5, -2, -6, -49, 1, -1, 26, -5]"
2024/05/28 23:19:32.258506551,"[-1, 2, 2, -73, -2, 0, 0, -5]"
2024/05/28 23:19:32.258533121,"[-2, 0, -1, -23, 3, -1, -22, 0]"
2024/05/28 23:19:32.259245149,"[2, -1, 3, -39, -4, 0, -17, 11]"
2024/05/28 23:19:32.259285575,"[7, -1, -2, 4, -1, 2, -4, 2]"
2024/05/28 23:19:32.272963214,"[5, 1, 0, -13, 2, -2, -20, -5]"
2024/05/28 23:19:32.272989246,"[-6, -12, -5, -9, 1, -2, -29, 4]"
2024/05/28 23:19:32.280336266,"[-1, 12, 2, -5, -1, -3, -3, 10]"
2024/05/28 23:19:32.280361985,"[-3, -1, -1, -14, -3, 2, 16, 10]"
2024/05/28 23:19:32.295381048,"[3, -3, 3, -46, -1, 1, 1, -7]"
2024/05/28 23:19:32.295407244,"[2, -6, -5, 10, -2, -1, -6, -4]"
2024/05/28 23:19:32.302885734,"[-5, -5, -9, 7, -3, -4, 9, -2]"
2024/05/28 23:19:32.302911647,"[-3, -5, -4, -20, -2, -1, -3, -4]"
2024/05/28 23:19:32.318563356,"[6, 6, 8, -20, -2, -4, -15, -7]"
2024/05/28 23:19:32.318589725,"[-1, 1, 1, 31, 2, 0, 5, -2]"
2024/05/28 23:19:32.319432452,"[-2, 0, 2, -24, -1, 3, 17, 0]"
2024/05/28 23:19:32.319458012,"[-2, 1, 4, 9, 0, -2, -2, -9]"
2024/05/28 23:19:32.333003360,"[3, 3, 3, 11, 2, -1, -3, -10]"
2024/05/28 23:19:32.333028400,"[-2, -6, -5, -19, -1, 0, 5, -10]"
2024/05/28 23:19:32.340548090,"[-2, -8, -2, -2, -1, 1, 0, 0]"
2024/05/28 23:19:32.340573824,"[-5, -4, -4, -2, -1, 2, -3, -2]"
2024/05/28 23:19:32.355526285,"[-4, -2, 2, 32, -3, 1, -10, -5]"
2024/05/28 23:19:32.355552751,"[2, 7, 1, 15, -3, -3, -5, -3]"
2024/05/28 23:19:32.362880340,"[-3, -2, -3, -4, 1, -2, -9, -8]"
2024/05/28 23:19:32.362906535,"[2, -9, -4, -9, -2, 0, -5, -3]"
2024/05/28 23:19:32.377918122,"[3, 8, -5, -16, -2, 3, -2, -1]"
2024/05/28 23:19:32.377931672,"[2, 6, 4, 2, 2, 1, -2, 2]"
2024/05/28 23:19:32.386216136,"[2, 7, 7, -5, 4, -6, 8, 7]"
2024/05/28 23:19:32.386229360,"[0, 1, 3, -3, 4, -4, 10, 6]"
2024/05/28 23:19:32.392877730,"[2, -5, 1, -32, -3, 1, 0, 4]"
2024/05/28 23:19:32.392903028,"[1, -3, -1, -9, -3, 1, 0, 1]"
2024/05/28 23:19:32.400439625,"[-1, -4, 5, -4, 1, 2, 1, 1]"
2024/05/28 23:19:32.400463990,"[0, -3, -1, 27, -4, -1, -5, 6]"
2024/05/28 23:19:32.415547391,"[-3, -8, -6, 2, 0, 1, -9, 1]"
2024/05/28 23:19:32.415576823,"[0, -3, -2, -7, -2, -1, -8, -1]"
2024/05/28 23:19:32.422929873,"[1, -2, -5, -14, -2, 1, -3, 1]"
2024/05/28 23:19:32.422954134,"[-4, 5, -1, -10, -1, -5, 2, 2]"
2024/05/28 23:19:32.437919085,"[-3, -2, -2, -14, 0, -3, 1, -1]"
2024/05/28 23:19:32.437941968,"[-4, 7, 6, -7, -2, 0, 1, 1]"
2024/05/28 23:19:32.446051775,"[0, -6, -2, 10, 3, 1, 4, 0]"
2024/05/28 23:19:32.446074899,"[-1, -3, -3, -2, 0, 1, 6, -2]"
2024/05/28 23:19:32.452796469,"[-1, 1, -5, -5, -1, -3, 0, -2]"
2024/05/28 23:19:32.452810560,"[-1, 5, -2, 7, -2, -1, 2, -2]"
2024/05/28 23:19:32.460349106,"[0, 2, -1, 1, 0, -1, 10, 3]"
2024/05/28 23:19:32.460362649,"[-2, 5, 3, -3, -2, -3, 10, 1]"
2024/05/28 23:19:32.475278145,"[2, 1, 1, -10, -3, -3, 6, -1]"
2024/05/28 23:19:32.475293839,"[1, 2, 1, 3, 2, -1, 5, -1]"
2024/05/28 23:19:32.482837652,"[1, 2, -5, 0, -1, 3, -1, -2]"
2024/05/28 23:19:32.482850674,"[1, 0, -4, -8, -1, 1, -2, -3]"
2024/05/28 23:19:32.497765759,"[1, -7, -3, -2, -1, 3, 2, -2]"
2024/05/28 23:19:32.497780107,"[-3, -5, -1, 5, -4, 5, 1, -3]"
2024/05/28 23:19:32.506080169,"[0, -1, 4, 1, 0, 1, 1, -1]"
2024/05/28 23:19:32.506093193,"[0, -4, 3, 6, 3, 0, -3, -2]"
2024/05/28 23:19:32.521008696,"[1, 1, 3, -12, -2, 0, -6, 0]"
2024/05/28 23:19:32.521023100,"[1, 0, -4, -7, 0, -1, -6, -4]"
2024/05/28 23:19:32.521696798,"[-7, 1, -3, -1, -1, 0, -3, 2]"
2024/05/28 23:19:32.521709798,"[-4, 3, -3, 1, -1, 0, -1, -1]"
2024/05/28 23:19:32.535512277,"[-4, -2, -1, 6, 1, -3, -4, -2]"
2024/05/28 23:19:32.535530880,"[-4, 1, 3, -10, 2, -4, 1, 1]"
2024/05/28 23:19:32.542957790,"[0, 3, -1, -2, 1, -2, -2, 1]"
2024/05/28 23:19:32.542980800,"[0, 0, -2, 4, 2, 1, -4, -2]"
2024/05/28 23:19:32.557892405,"[0, -1, -6, 1, -1, -1, -3, -2]"
2024/05/28 23:19:32.557914400,"[3, 3, -2, 7, -2, 1, 0, 1]"
2024/05/28 23:19:32.566189364,"[-1, -6, 0, 10, -2, 0, 1, -5]"
2024/05/28 23:19:32.566213983,"[6, -3, 5, 0, -1, 1, 1, 1]"
2024/05/28 23:19:32.581156886,"[-2, -11, 0, 0, -2, -3, 0, -5]"
2024/05/28 23:19:32.581181043,"[5, 5, 4, -3, -2, -3, 1, -3]"
2024/05/28 23:19:32.581796772,"[0, 1, -1, 3, -5, -2, 4, 0]"
2024/05/28 23:19:32.581820076,"[-2, 1, -1, -2, 0, 0, 2, 1]"
2024/05/28 23:19:32.595331548,"[-4, -1, 0, 1, 5, 0, 1, 3]"
2024/05/28 23:19:32.595353909,"[0, -3, -4, 0, 1, -3, 0, 3]"
2024/05/28 23:19:32.602865729,"[2, 0, -7, -7, 1, -1, -1, 2]"
2024/05/28 23:19:32.602888494,"[-1, -2, -6, -4, 0, 0, 1, -3]"
2024/05/28 23:19:32.618036453,"[-3, 1, 4, -1, 1, 1, 1, 1]"
2024/05/28 23:19:32.618054125,"[-3, -5, 3, 2, 1, 2, -2, 4]"
2024/05/28 23:19:32.626079891,"[1, 3, 1, -7, 3, 0, 1, 0]"
2024/05/28 23:19:32.626093081,"[-1, -3, -1, 1, -3, 1, 1, 2]"
2024/05/28 23:19:32.641211442,"[0, 0, 0, 0, -2, -2, -3, -1]"
2024/05/28 23:19:32.641234855,"[-1, -3, 1, 15, 0, 1, -3, -3]"
2024/05/28 23:19:32.641916186,"[-3, 1, 0, 3, -5, -2, -2, -2]"
2024/05/28 23:19:32.641939513,"[-3, 1, -4, 1, 4, 2, 1, 0]"
2024/05/28 23:19:32.655535339,"[-3, 4, 2, -3, 0, 1, 3, -5]"
2024/05/28 23:19:32.655548789,"[-1, 2, -2, -5, -1, 3, 3, -1]"
2024/05/28 23:19:32.663004811,"[3, -1, 2, -4, -1, 5, 1, 3]"
2024/05/28 23:19:32.663028144,"[2, 1, 2, -7, -2, -1, 3, 4]"
2024/05/28 23:19:32.678006439,"[1, 0, -2, 0, 1, -1, -1, 2]"
2024/05/28 23:19:32.678030321,"[-3, -3, -4, -2, 4, -5, -4, 1]"
2024/05/28 23:19:32.686300835,"[-1, -1, 2, 14, 2, -4, -4, -1]"
2024/05/28 23:19:32.686326334,"[5, 2, 2, 0, -2, -3, -1, -1]"
2024/05/28 23:19:32.701103789,"[0, -2, -4, -4, 0, -2, 2, 1]"
2024/05/28 23:19:32.701127628,"[0, 2, -3, -8, 1, -3, 6, -1]"
2024/05/28 23:19:32.701959232,"[-3, 1, -6, -11, -2, -1, 3, -1]"
2024/05/28 23:19:32.701981357,"[-1, 0, -1, -2, -3, 1, -2, -4]"
2024/05/28 23:19:32.715666139,"[2, 3, 1, -3, -2, 2, 0, -2]"
2024/05/28 23:19:32.715694636,"[-3, 0, -1, 2, -2, 0, 4, 0]"
2024/05/28 23:19:32.723083267,"[-3, -2, 5, 1, 3, -4, 2, 3]"
2024/05/28 23:19:32.723107774,"[-1, -2, 7, 6, 0, -3, 1, 1]"
2024/05/28 23:19:32.738023604,"[-1, -3, 1, 1, -4, 2, -3, -1]"
2024/05/28 23:19:32.738036889,"[0, 2, -2, 4, -3, 0, -3, -2]"
2024/05/28 23:19:32.746098037,"[0, 1, -3, -3, -1, -1, 0, -1]"
2024/05/28 23:19:32.746111129,"[-4, 0, -4, -7, 1, 2, 0, -2]"
2024/05/28 23:19:32.761135063,"[0, 3, -3, 0, 2, 0, -3, -3]"
2024/05/28 23:19:32.761158507,"[1, -8, -2, 3, 4, 0, -4, -2]"
2024/05/28 23:19:32.761839593,"[1, -6, 0, -1, -1, 2, -3, -2]"
2024/05/28 23:19:32.761852684,"[-5, -6, 3, 3, 2, -3, 0, 0]"
2024/05/28 23:19:32.775144914,"[-2, -2, 1, -1, 0, -3, 2, 1]"
2024/05/28 23:19:32.775158549,"[-2, -2, -2, 2, -2, -1, 2, 0]"
2024/05/28 23:19:32.782895724,"[0, 3, -2, 6, -1, -2, -1, -2]"
2024/05/28 23:19:32.782919228,"[4, 2, -3, -2, -2, 0, -3, 4]"
2024/05/28 23:19:32.797902473,"[2, 2, -4, 0, -5, -2, -2, -1]"
2024/05/28 23:19:32.797926917,"[1, 2, -4, -1, -2, -2, 0, 0]"
2024/05/28 23:19:32.806144427,"[1, -3, -3, -4, 0, -2, 2, 0]"
2024/05/28 23:19:32.806168133,"[0, -3, -3, -2, -2, 3, -5, -1]"
2024/05/28 23:19:32.821128585,"[-3, -4, -1, 2, 1, 1, -4, 0]"
2024/05/28 23:19:32.821153346,"[3, 0, 1, 1, -2, 5, 0, 1]"
2024/05/28 23:19:32.821920992,"[-3, 1, 3, -2, -1, 1, -1, 0]"
2024/05/28 23:19:32.821945344,"[-3, -4, 5, 3, 3, -1, 2, 1]"
2024/05/28 23:19:32.835508665,"[-1, 0, 6, -1, 1, -2, 4, 4]"
2024/05/28 23:19:32.835531819,"[-2, -2, 1, -4, -4, -2, 2, -1]"
2024/05/28 23:19:32.843711671,"[-1, -2, -2, -2, -2, -1, 4, -1]"
2024/05/28 23:19:32.843735804,"[1, 2, -4, -3, -2, -3, 2, -1]"
